time[s], wr_x[mm], wr_y[mm], spd, spd_avg 
0.0004,-1108.2491,81.4020,0.0000,0.0000
0.0748,-1108.2284,81.4149,0.0000,0.0000
0.0858,-1108.2331,81.4075,0.0000,0.0000
0.0919,-1108.2255,81.4171,0.0000,0.0000
0.0978,-1108.2125,81.4109,0.0000,0.0000
0.1145,-1108.2299,81.4242,0.0000,0.0000
0.1172,-1108.1948,81.4296,0.0000,0.0000
0.1422,-1108.1981,81.3976,0.0000,0.0000
0.1448,-1108.1398,81.4227,0.0000,0.0000
0.1473,-1108.0237,81.4155,0.0000,0.0000
0.1617,-1107.7972,81.3867,0.0000,0.0000
0.1659,-1107.5349,81.3711,0.0000,0.0000
0.1756,-1107.2470,81.3420,0.0000,0.0000
0.1865,-1106.8464,81.2820,0.0000,0.0000
0.2081,-1106.3740,81.2734,0.0000,0.0000
0.2202,-1105.9977,81.2523,0.0000,0.0000
0.2222,-1105.7131,81.2012,0.0000,0.0000
0.2257,-1105.4369,81.1947,0.0000,0.0000
0.2522,-1105.1889,81.1980,0.0000,0.0000
0.2546,-1104.9553,81.1555,0.0000,0.0000
0.2566,-1104.7118,81.1088,0.0000,0.0000
0.2659,-1104.5491,81.1179,0.0000,0.0000
0.2843,-1104.4671,81.1192,0.0000,0.0000
0.2867,-1104.5229,81.1012,0.0000,0.0000
0.2954,-1104.6609,81.1303,0.0000,0.0000
0.3154,-1104.8597,81.1327,0.0000,0.0000
0.3181,-1104.9790,81.1411,0.0000,0.0000
0.3261,-1105.0224,81.1804,0.0000,0.0000
0.3494,-1104.9195,81.1821,0.0000,0.0000
0.3516,-1104.7453,81.1240,0.0000,0.0000
0.3554,-1104.5457,81.1260,0.0000,0.0000
0.3864,-1104.3218,81.0954,0.0000,0.0000
0.3890,-1104.3983,81.1044,0.0000,0.0000
0.3957,-1104.5070,81.1279,0.0000,0.0000
0.4289,-1104.6355,81.1235,0.0000,0.0000
0.4314,-1104.6400,81.1337,0.0000,0.0000
0.4359,-1104.5951,81.1060,0.0000,0.0000
0.4461,-1104.5586,81.1252,0.0000,0.0000
0.4559,-1104.4930,81.1370,0.0000,0.0000
0.4714,-1104.3586,81.1292,0.0000,0.0000
0.4920,-1104.1340,81.0966,0.0000,0.0000
0.4941,-1103.8711,81.1004,0.0000,0.0000
0.4960,-1103.5961,81.0636,0.0000,0.0000
0.5057,-1103.3170,81.0117,0.0000,0.0000
0.5158,-1103.0833,80.9928,0.0000,0.0000
0.5270,-1102.8132,80.9643,0.0000,0.0000
0.5363,-1102.4627,80.9172,0.0000,0.0000
0.5464,-1102.2861,80.9609,0.0000,0.0000
0.5558,-1102.2464,80.9543,0.0000,0.0000
0.5660,-1102.2663,80.8928,0.0000,0.0000
0.5832,-1102.2742,80.9426,0.0000,0.0000
0.5856,-1102.2494,80.9688,0.0000,0.0000
0.5956,-1102.1741,80.9004,0.0000,0.0000
0.6058,-1101.8820,80.9220,0.0000,0.0000
0.6156,-1101.2437,80.8416,0.0000,0.0000
0.6499,-1099.5926,80.6949,0.0000,0.0000
0.6522,-1098.8831,80.6959,0.0000,0.0000
0.6557,-1098.2051,80.6569,0.0000,0.0000
0.6919,-1097.0822,80.5741,0.0000,0.0000
0.6942,-1096.5945,80.4943,0.0000,0.0000
0.6962,-1096.1634,80.4893,0.0000,0.0000
0.7062,-1095.8784,80.4727,0.0000,0.0000
0.7372,-1095.5703,80.4374,0.0000,0.0000
0.7395,-1095.7487,80.4550,0.0000,0.0000
0.7461,-1096.0162,80.4787,0.0000,0.0000
0.7800,-1096.5334,80.5086,0.0000,0.0000
0.7821,-1096.8308,80.5589,0.0000,0.0000
0.7855,-1097.1222,80.5779,0.0000,0.0000
0.8218,-1097.8457,80.6255,0.0000,0.0000
0.8238,-1098.0671,80.6529,0.0000,0.0000
0.8257,-1098.1341,80.6108,0.0000,0.0000
0.8365,-1098.0463,80.5836,0.0000,0.0000
0.8456,-1097.8240,80.6088,0.0000,0.0000
0.8560,-1097.5884,80.5898,0.0000,0.0000
0.8661,-1097.4362,80.5883,0.0000,0.0000
0.8990,-1097.3037,80.5319,0.0000,0.0000
0.9013,-1097.2984,80.5734,0.0000,0.0000
0.9055,-1097.3302,80.5754,0.0000,0.0000
0.9414,-1097.1958,80.5810,0.0000,0.0000
0.9436,-1097.0555,80.6213,0.0000,0.0000
0.9455,-1096.9161,80.6005,0.0000,0.0000
0.9575,-1096.8433,80.5238,0.0000,0.0000
0.9874,-1096.8131,80.5559,0.0000,0.0000
0.9896,-1096.8268,80.5428,0.0000,0.0000
0.9956,-1096.8868,80.5954,0.0000,0.0000
1.0320,-1097.0093,80.5540,0.0000,0.0000
1.0340,-1097.0580,80.5925,0.0000,0.0000
1.0374,-1097.0479,80.5614,0.0000,0.0000
1.0460,-1096.9759,80.5720,0.0000,0.0000
1.0617,-1096.8507,80.5457,0.0000,0.0000
1.0657,-1096.5385,80.5041,0.0000,0.0000
1.0758,-1096.1126,80.4574,0.0000,0.0000
1.0941,-1095.6879,80.4394,0.0000,0.0000
1.0963,-1095.3015,80.4472,0.0000,0.0000
1.1059,-1095.0428,80.4061,0.0000,0.0000
1.1160,-1094.9810,80.3680,0.0000,0.0000
1.1392,-1095.0400,80.3713,0.0000,0.0000
1.1412,-1095.2078,80.3898,0.0000,0.0000
1.1453,-1095.3847,80.3958,0.0000,0.0000
1.1746,-1095.2503,80.4380,0.0000,0.0000
1.1767,-1094.8893,80.4160,0.0000,0.0000
1.1859,-1094.5650,80.3792,0.0000,0.0000
1.2182,-1094.1865,80.3214,0.0000,0.0000
1.2202,-1094.0958,80.2908,0.0000,0.0000
1.2258,-1093.9444,80.3229,0.0000,0.0000
1.2598,-1093.7668,80.2809,0.0000,0.0000
1.2620,-1093.7777,80.3008,0.0000,0.0000
1.2657,-1093.7444,80.2917,0.0000,0.0000
1.3042,-1093.7249,80.3107,0.0000,0.0000
1.3068,-1093.7460,80.2736,0.0000,0.0000
1.3157,-1093.7941,80.3059,0.0000,0.0000
1.3351,-1093.7026,80.2885,0.0000,0.0000
1.3375,-1093.3829,80.2074,0.0000,0.0000
1.3463,-1092.8279,80.1763,0.0000,0.0000
1.3805,-1091.9136,80.1083,0.0000,0.0000
1.3829,-1091.8100,80.0990,0.0000,0.0000
1.3852,-1091.8169,80.1127,0.0000,0.0000
1.4240,-1092.3386,80.1600,0.0000,0.0000
1.4263,-1092.5288,80.1207,0.0000,0.0000
1.4354,-1092.6099,80.1365,0.0000,0.0000
1.4536,-1092.6171,80.1815,0.0000,0.0000
1.4564,-1092.5169,80.1440,0.0000,0.0000
1.4661,-1092.3309,80.1369,0.0000,0.0000
1.4860,-1092.2486,80.1727,0.0000,0.0000
1.4881,-1092.1700,80.1251,0.0000,0.0000
1.4958,-1092.1118,80.0865,0.0000,0.0000
1.5060,-1092.0753,80.1330,0.0000,0.0000
1.5156,-1092.0530,80.1332,0.0000,0.0000
1.5258,-1092.0089,80.0983,0.0000,0.0000
1.5354,-1091.9481,80.0958,0.0000,0.0000
1.5455,-1091.8864,80.0964,0.0000,0.0000
1.5553,-1091.7384,80.0685,0.0000,0.0000
1.5657,-1091.3899,80.0755,0.0000,0.0000
1.5757,-1090.7689,79.9857,0.0000,0.0000
1.5858,-1090.0257,79.9436,0.0000,0.0000
1.5958,-1089.3661,79.9582,0.0000,0.0000
1.6057,-1088.7829,79.9415,0.0000,0.0000
1.6353,-1087.6287,79.8132,0.0000,0.0000
1.6375,-1087.1700,79.7987,0.0000,0.0000
1.6455,-1086.7544,79.7680,0.0000,0.0000
1.6791,-1086.1272,79.7047,0.0000,0.0000
1.6812,-1085.8496,79.6848,0.0000,0.0000
1.6851,-1085.6082,79.6662,0.0000,0.0000
1.6963,-1085.5452,79.6662,0.0000,0.0000
1.7057,-1085.5813,79.6697,0.0000,0.0000
1.7160,-1085.6363,79.6658,0.0000,0.0000
1.7260,-1085.7935,79.6721,0.0000,0.0000
1.7362,-1085.9060,79.7015,0.0000,0.0000
1.7456,-1086.0189,79.7058,0.0000,0.0000
1.7753,-1086.2362,79.7020,0.0000,0.0000
1.7776,-1086.1591,79.7099,0.0000,0.0000
1.7858,-1085.7032,79.7076,0.0000,0.0000
1.8185,-1084.1241,79.5872,0.0000,0.0000
1.8207,-1083.3189,79.4422,0.0000,0.0000
1.8257,-1082.5937,79.4259,0.0000,0.0000
1.8620,-1081.1307,79.4779,0.0000,0.0000
1.8642,-1080.4534,79.4673,0.0000,0.0000
1.8672,-1079.8794,79.4523,0.0000,0.0000
1.8755,-1079.4677,79.4004,0.0000,0.0000
1.9059,-1079.4687,79.3648,0.0000,0.0000
1.9081,-1079.6793,79.3704,0.0000,0.0000
1.9160,-1079.9918,79.3867,0.0000,0.0000
1.9497,-1080.5591,79.4034,0.0000,0.0000
1.9520,-1080.8256,79.3894,0.0000,0.0000
1.9558,-1081.1108,79.4202,0.0000,0.0000
1.9917,-1081.5886,79.4180,0.0000,0.0000
1.9938,-1081.7298,79.3978,0.0000,0.0000
1.9956,-1081.7433,79.3906,0.0000,0.0000
2.0063,-1081.6577,79.4006,0.0000,0.0000
2.0232,-1081.5685,79.4187,0.0000,0.0000
2.0256,-1081.4123,79.4176,0.0000,0.0000
2.0361,-1081.2367,79.3961,0.0000,0.0000
2.0556,-1081.0802,79.4035,0.0000,0.0000
2.0579,-1080.9127,79.3916,0.0000,0.0000
2.0655,-1080.7138,79.3981,0.0000,0.0000
2.0755,-1080.4776,79.4146,0.0000,0.0000
2.0854,-1080.2163,79.4098,0.0000,0.0000
2.0958,-1079.9758,79.3868,0.0000,0.0000
2.1061,-1079.7807,79.3676,0.0000,0.0000
2.1186,-1079.7000,79.3761,0.0000,0.0000
2.1257,-1079.6411,79.3904,0.0000,0.0000
2.1364,-1079.5854,79.3851,0.0000,0.0000
2.1458,-1079.5096,79.4256,0.0000,0.0000
2.1561,-1079.3177,79.4774,0.0000,0.0000
2.1657,-1079.0829,79.4803,0.0000,0.0000
2.1757,-1078.8236,79.4406,0.0000,0.0000
2.1859,-1078.4121,79.3569,0.0000,0.0000
2.1960,-1077.8651,79.3309,0.0000,0.0000
2.2111,-1077.3303,79.2924,0.0000,0.0000
2.2160,-1076.7943,79.2195,0.0000,0.0000
2.2255,-1076.2267,79.1761,0.0000,0.0000
2.2367,-1075.6683,79.1322,0.0000,0.0000
2.2686,-1074.5610,79.0587,0.0000,0.0000
2.2709,-1074.0500,79.0283,0.0000,0.0000
2.2754,-1073.6001,79.0373,0.0000,0.0000
2.3125,-1072.8492,79.0834,0.0000,0.0000
2.3147,-1072.5103,79.0828,0.0000,0.0000
2.3169,-1072.2274,79.1156,0.0000,0.0000
2.3260,-1072.0912,79.0777,0.0000,0.0000
2.3573,-1072.4745,79.0855,0.0000,0.0000
2.3594,-1072.7831,79.0599,0.0000,0.0000
2.3662,-1073.0450,79.0642,0.0000,0.0000
2.3762,-1073.2541,79.0626,0.0000,0.0000
2.3862,-1073.4775,79.0451,0.0000,0.0000
23.1968,323.4813,154.6938,0.0000,0.0000
23.1998,324.1721,154.8086,0.0000,0.0000
23.2068,324.9152,154.9307,0.0000,0.0000
23.2088,325.7058,155.0704,0.0000,0.0000
23.2155,326.4479,155.2970,0.0000,0.0000
23.2382,327.1370,155.4627,0.0000,0.0000
23.2402,327.8442,155.5413,0.0000,0.0000
23.2453,328.5771,155.6930,0.0000,0.0000
23.2698,329.2492,155.8122,0.0000,0.0000
23.2746,329.7691,155.8687,0.0000,0.0000
23.2767,330.0176,155.9349,0.0000,0.0000
23.3004,329.9549,155.9035,0.0000,0.0000
23.3024,329.6981,155.8493,0.0000,0.0000
23.3052,329.4075,155.8631,0.0000,0.0000
23.3159,329.1014,155.8117,0.0000,0.0000
23.4448,329.1233,155.8150,0.0000,0.0000
23.4478,329.5260,155.9813,0.0000,0.0000
23.4511,329.9888,156.0742,0.0000,0.0000
23.4532,330.4684,156.1534,0.0000,0.0000
23.4553,330.9586,156.2094,0.0000,0.0000
23.4658,331.2968,156.2445,0.0000,0.0000
23.4758,331.5493,156.3200,0.0000,0.0000
23.4859,331.7631,156.3675,0.0000,0.0000
23.4957,332.0022,156.4308,0.0000,0.0000
23.5063,332.1639,156.4646,0.0000,0.0000
23.5162,332.2772,156.4418,0.0000,0.0000
23.5258,332.3836,156.4671,0.0000,0.0000
23.5444,332.4675,156.5321,0.0000,0.0000
23.5466,332.6761,156.5963,0.0000,0.0000
23.5561,333.0848,156.6586,0.0000,0.0000
23.5658,333.6296,156.7738,0.0000,0.0000
23.5758,334.3878,156.9052,0.0000,0.0000
23.5855,335.1486,157.0030,0.0000,0.0000
23.5967,335.7987,157.1278,0.0000,0.0000
23.6056,336.3352,157.3023,0.0000,0.0000
23.6186,336.9188,157.3810,0.0000,0.0000
23.6262,337.6050,157.4879,0.0000,0.0000
23.6596,338.7164,157.6894,0.0000,0.0000
23.6618,339.0640,157.7701,0.0000,0.0000
23.6654,339.2833,157.8603,0.0000,0.0000
23.6761,339.5294,157.9548,0.0000,0.0000
23.6857,339.8205,158.0002,0.0000,0.0000
23.6957,340.0982,158.0362,0.0000,0.0000
23.7060,340.3170,158.0517,0.0000,0.0000
23.7157,340.5014,158.0659,0.0000,0.0000
23.7257,340.6547,158.1147,0.0000,0.0000
23.7353,340.7642,158.1585,0.0000,0.0000
23.7458,340.9837,158.1734,0.0000,0.0000
23.7760,341.9832,158.4629,0.0000,0.0000
23.7782,342.7132,158.5491,0.0000,0.0000
23.7858,343.4825,158.6562,0.0000,0.0000
23.8200,345.0028,159.0246,0.0000,0.0000
23.8221,345.8024,159.1625,0.0000,0.0000
23.8256,346.5922,159.3528,0.0000,0.0000
23.8620,348.0179,159.6258,0.0000,0.0000
23.8658,348.2829,159.6687,0.0000,0.0000
23.8679,348.2285,159.5928,0.0000,0.0000
23.8759,347.9664,159.5023,0.0000,0.0000
23.9054,347.2031,159.5172,0.0000,0.0000
23.9080,346.9471,159.4112,0.0000,0.0000
23.9158,346.7930,159.3752,0.0000,0.0000
23.9490,346.6762,159.3648,0.0000,0.0000
23.9512,346.8088,159.3626,0.0000,0.0000
23.9557,346.9103,159.4022,0.0000,0.0000
23.9661,346.9914,159.4194,0.0000,0.0000
23.9762,347.0811,159.4184,0.0000,0.0000
23.9859,347.1426,159.4527,0.0000,0.0000
23.9960,347.2645,159.4983,0.0000,0.0000
24.0060,347.3956,159.5039,0.0000,0.0000
24.0159,347.5360,159.5252,0.0000,0.0000
24.0288,347.6967,159.5900,0.0000,0.0000
24.0358,347.9707,159.6567,0.0000,0.0000
24.0458,348.3622,159.7780,0.0000,0.0000
24.0562,348.8119,159.9181,0.0000,0.0000
24.0659,349.3440,160.0089,0.0000,0.0000
24.0765,349.8555,160.0905,0.0000,0.0000
24.1065,350.4825,160.1574,0.0000,0.0000
24.1088,350.6739,160.1631,0.0000,0.0000
24.1154,350.9942,160.2888,0.0000,0.0000
24.1256,351.4246,160.3847,0.0000,0.0000
24.1355,351.8601,160.4401,0.0000,0.0000
24.1651,352.7641,160.6382,0.0000,0.0000
24.1674,353.2262,160.6781,0.0000,0.0000
24.1762,353.6298,160.7386,0.0000,0.0000
24.2095,354.5203,160.9188,0.0000,0.0000
24.2119,354.9337,161.0161,0.0000,0.0000
24.2154,355.3544,161.1392,0.0000,0.0000
24.2258,355.7182,161.1934,0.0000,0.0000
24.2355,355.9589,161.2173,0.0000,0.0000
24.2463,356.0548,161.2781,0.0000,0.0000
24.2562,356.0033,161.2288,0.0000,0.0000
24.2655,355.8460,161.1785,0.0000,0.0000
24.2755,355.5876,161.1511,0.0000,0.0000
24.2860,355.4217,161.1112,0.0000,0.0000
24.2955,355.2899,161.1183,0.0000,0.0000
24.3268,355.5324,161.2921,0.0000,0.0000
24.3291,356.0827,161.3946,0.0000,0.0000
24.3355,356.6992,161.5008,0.0000,0.0000
24.3457,357.3010,161.5852,0.0000,0.0000
24.3561,357.9265,161.7115,0.0000,0.0000
24.3655,358.5491,161.8103,0.0000,0.0000
24.3954,359.5383,161.9883,0.0000,0.0000
24.3975,359.9592,162.0581,0.0000,0.0000
24.4061,360.3025,162.1394,0.0000,0.0000
24.4266,360.5635,162.1831,0.0000,0.0000
24.4290,360.7512,162.1935,0.0000,0.0000
24.4357,360.8754,162.2213,0.0000,0.0000
24.4467,360.9583,162.2104,0.0000,0.0000
24.4561,361.1478,162.3288,0.0000,0.0000
24.4659,361.1667,162.3292,0.0000,0.0000
24.4955,361.1525,162.3363,0.0000,0.0000
24.4979,361.1266,162.3094,0.0000,0.0000
24.5057,361.2148,162.3676,0.0000,0.0000
24.5209,361.6115,162.4535,0.0000,0.0000
24.5251,362.0383,162.4375,0.0000,0.0000
24.5356,362.6697,162.4854,0.0000,0.0000
24.5458,363.4481,162.6654,0.0000,0.0000
24.5560,364.2373,162.8452,0.0000,0.0000
24.5656,364.8962,162.9350,0.0000,0.0000
24.5760,365.4543,163.0757,0.0000,0.0000
24.5861,365.9642,163.1893,0.0000,0.0000
24.5961,366.3917,163.3111,0.0000,0.0000
24.6061,366.7515,163.3647,0.0000,0.0000
24.6161,366.8609,163.3127,0.0000,0.0000
24.6257,366.7692,163.3110,0.0000,0.0000
24.6361,366.6275,163.3324,0.0000,0.0000
24.6460,366.5921,163.3196,0.0000,0.0000
24.6561,366.7768,163.4923,0.0000,0.0000
24.6658,365.8508,163.5402,0.0000,0.0000
24.6758,366.4702,163.4018,0.0000,0.0000
24.6862,367.2443,163.4927,0.0000,0.0000
24.6962,368.1014,162.9423,0.0000,0.0000
24.7060,369.1309,162.7494,0.0000,0.0000
