time[s], wr_x[mm], wr_y[mm], spd, spd_avg 
0.0004,-139.8302,-13.5709,0.0000,0.0000
0.0640,-139.7715,-13.5638,0.0000,0.0000
0.0740,-139.7668,-13.5681,0.0000,0.0000
0.0823,-139.7618,-13.5502,0.0000,0.0000
0.0868,-139.8307,-13.5197,0.0000,0.0000
0.1011,-139.9406,-13.4221,0.0000,0.0000
0.1038,-139.8829,-13.3749,0.0000,0.0000
0.1117,-139.9470,-13.2128,0.0000,0.0000
0.1221,-139.9303,-13.0143,0.0000,0.0000
0.1318,-139.8875,-12.6040,0.0000,0.0000
0.1418,-139.9563,-12.1200,0.0000,0.0000
0.1516,-139.9329,-11.9565,0.0000,0.0000
0.1622,-140.1204,-11.6660,0.0000,0.0000
0.1922,-140.3280,-11.0850,0.0000,0.0000
0.1950,-140.5312,-10.7054,0.0000,0.0000
0.2028,-140.6641,-10.3766,0.0000,0.0000
0.2119,-140.9024,-9.9585,0.0000,0.0000
0.2217,-141.1863,-9.5781,0.0000,0.0000
0.2320,-141.3903,-9.1874,0.0000,0.0000
0.2418,-141.6474,-8.7125,0.0000,0.0000
0.2519,-142.2064,-7.9678,0.0000,0.0000
0.2617,-142.5562,-7.4547,0.0000,0.0000
0.2721,-142.7748,-6.9881,0.0000,0.0000
0.2818,-143.4380,-6.2864,0.0000,0.0000
0.2919,-143.9537,-5.8255,0.0000,0.0000
0.3017,-144.1894,-5.6338,0.0000,0.0000
0.3120,-144.7255,-4.9462,0.0000,0.0000
0.3219,-145.5057,-4.1066,0.0000,0.0000
0.3535,-146.3776,-3.0501,0.0000,0.0000
0.3560,-147.0464,-2.6663,0.0000,0.0000
0.3621,-147.7423,-2.3504,0.0000,0.0000
0.3718,-148.5137,-1.8805,0.0000,0.0000
0.3817,-149.2155,-1.4719,0.0000,0.0000
0.3917,-150.1087,-1.0044,0.0000,0.0000
0.4020,-151.0899,-0.3651,0.0000,0.0000
0.4118,-151.8574,0.1122,0.0000,0.0000
0.4221,-152.5994,0.4284,0.0000,0.0000
0.4319,-153.6313,0.9356,0.0000,0.0000
0.4419,-154.6766,1.3719,0.0000,0.0000
0.4560,-155.4050,1.6652,0.0000,0.0000
0.4621,-156.5552,2.1121,0.0000,0.0000
0.4713,-157.8327,2.5451,0.0000,0.0000
0.4815,-158.4980,2.7807,0.0000,0.0000
0.4914,-159.4070,3.0424,0.0000,0.0000
0.5017,-160.6457,3.2550,0.0000,0.0000
0.5119,-161.5001,3.4253,0.0000,0.0000
0.5220,-162.3372,3.6073,0.0000,0.0000
0.5317,-163.5000,3.7243,0.0000,0.0000
0.5609,-165.4630,4.0451,0.0000,0.0000
0.5630,-166.8086,4.2105,0.0000,0.0000
0.5716,-167.7290,4.3012,0.0000,0.0000
0.6056,-170.0485,4.4469,0.0000,0.0000
0.6080,-171.0704,4.4075,0.0000,0.0000
0.6114,-171.8160,4.2010,0.0000,0.0000
0.6481,-173.8431,4.0130,0.0000,0.0000
0.6503,-174.4279,3.9532,0.0000,0.0000
0.6521,-174.6670,3.8400,0.0000,0.0000
0.6615,-174.8911,3.8271,0.0000,0.0000
0.6714,-175.0829,3.7751,0.0000,0.0000
0.6817,-175.1773,3.6276,0.0000,0.0000
0.6928,-175.2008,3.3375,0.0000,0.0000
0.7018,-175.2405,2.9972,0.0000,0.0000
0.7123,-175.3212,2.7527,0.0000,0.0000
0.7218,-175.6662,2.6198,0.0000,0.0000
0.7322,-175.9434,2.4744,0.0000,0.0000
0.7419,-176.2432,2.2490,0.0000,0.0000
0.7517,-176.6623,2.0202,0.0000,0.0000
0.7616,-177.0698,1.7443,0.0000,0.0000
0.7718,-177.5178,1.6397,0.0000,0.0000
0.7817,-177.8445,1.4083,0.0000,0.0000
0.8146,-179.0447,0.7876,0.0000,0.0000
0.8170,-179.4904,0.5300,0.0000,0.0000
0.8217,-179.9021,0.2865,0.0000,0.0000
0.8577,-181.3606,-0.5478,0.0000,0.0000
0.8599,-181.9140,-0.9217,0.0000,0.0000
0.8620,-182.5149,-1.3705,0.0000,0.0000
0.8721,-183.1151,-1.8800,0.0000,0.0000
0.8879,-183.4203,-2.2484,0.0000,0.0000
0.8919,-183.6150,-2.5214,0.0000,0.0000
0.9023,-183.7386,-2.7133,0.0000,0.0000
0.9120,-183.6438,-2.7118,0.0000,0.0000
0.9218,-183.4941,-2.6322,0.0000,0.0000
0.9330,-183.3760,-2.6720,0.0000,0.0000
0.9654,-182.8222,-2.9336,0.0000,0.0000
0.9677,-182.6153,-3.0892,0.0000,0.0000
0.9714,-182.4835,-3.2896,0.0000,0.0000
1.0078,-182.3533,-3.6629,0.0000,0.0000
1.0102,-182.2308,-3.8751,0.0000,0.0000
1.0123,-182.1839,-4.0552,0.0000,0.0000
1.0221,-182.2516,-4.2942,0.0000,0.0000
1.0535,-182.3587,-4.7729,0.0000,0.0000
1.0560,-182.4704,-5.0449,0.0000,0.0000
1.0618,-182.5193,-5.3298,0.0000,0.0000
1.0826,-182.5103,-5.5518,0.0000,0.0000
1.0847,-182.4335,-5.7281,0.0000,0.0000
1.0916,-182.3486,-5.9472,0.0000,0.0000
1.1144,-182.1678,-6.1947,0.0000,0.0000
1.1167,-181.9333,-6.3813,0.0000,0.0000
1.1214,-181.8390,-6.6028,0.0000,0.0000
1.1347,-181.8326,-6.9045,0.0000,0.0000
1.1500,-181.7829,-7.1606,0.0000,0.0000
1.1520,-181.7538,-7.4173,0.0000,0.0000
1.1617,-181.8002,-7.7034,0.0000,0.0000
1.1718,-181.9159,-7.9907,0.0000,0.0000
1.1826,-182.0326,-8.2831,0.0000,0.0000
1.1916,-182.1007,-8.6548,0.0000,0.0000
1.2138,-182.0585,-8.8947,0.0000,0.0000
1.2160,-181.9894,-9.1018,0.0000,0.0000
1.2212,-181.9993,-9.3855,0.0000,0.0000
1.2547,-182.0892,-9.8837,0.0000,0.0000
1.2570,-182.0666,-10.1677,0.0000,0.0000
1.2614,-182.0102,-10.4037,0.0000,0.0000
1.2990,-181.7491,-10.9359,0.0000,0.0000
1.3014,-181.5582,-11.0834,0.0000,0.0000
1.3036,-181.4900,-11.2408,0.0000,0.0000
1.3115,-181.3305,-11.3448,0.0000,0.0000
1.3440,-181.2805,-11.4753,0.0000,0.0000
1.3462,-181.3549,-11.4777,0.0000,0.0000
1.3515,-181.3642,-11.5196,0.0000,0.0000
1.3614,-181.3066,-11.6171,0.0000,0.0000
1.3716,-181.1474,-11.6799,0.0000,0.0000
1.3813,-180.9546,-11.8770,0.0000,0.0000
1.3916,-180.7025,-12.0523,0.0000,0.0000
1.4020,-180.4213,-12.1149,0.0000,0.0000
1.4119,-180.1502,-12.2108,0.0000,0.0000
1.4440,-179.8792,-12.3780,0.0000,0.0000
1.4463,-179.8389,-12.5470,0.0000,0.0000
1.4513,-179.7404,-12.6605,0.0000,0.0000
1.4617,-179.7003,-12.7781,0.0000,0.0000
1.4717,-179.5813,-12.9514,0.0000,0.0000
1.4816,-179.3971,-13.0970,0.0000,0.0000
1.5109,-178.9255,-13.3484,0.0000,0.0000
1.5130,-178.6257,-13.4753,0.0000,0.0000
1.5216,-178.3286,-13.5834,0.0000,0.0000
1.5552,-178.0634,-13.9738,0.0000,0.0000
1.5576,-177.8081,-14.1439,0.0000,0.0000
1.5617,-177.5843,-14.3477,0.0000,0.0000
1.5714,-177.3944,-14.5318,0.0000,0.0000
1.5814,-177.2097,-14.6965,0.0000,0.0000
1.5914,-177.0437,-14.8508,0.0000,0.0000
1.6014,-176.8438,-14.9964,0.0000,0.0000
1.6114,-176.6051,-15.1514,0.0000,0.0000
1.6217,-176.3402,-15.2789,0.0000,0.0000
1.6318,-176.0046,-15.4207,0.0000,0.0000
1.6418,-175.6983,-15.6447,0.0000,0.0000
1.6515,-175.4360,-15.8120,0.0000,0.0000
1.6620,-175.2697,-16.0058,0.0000,0.0000
1.6745,-175.0860,-16.2147,0.0000,0.0000
1.6817,-174.9897,-16.4026,0.0000,0.0000
1.6917,-174.7853,-16.5726,0.0000,0.0000
1.7017,-174.5674,-16.7229,0.0000,0.0000
1.7254,-174.3565,-16.8795,0.0000,0.0000
1.7274,-174.0613,-17.0458,0.0000,0.0000
1.7310,-173.7274,-17.2254,0.0000,0.0000
1.7415,-173.4509,-17.4500,0.0000,0.0000
1.7514,-173.1614,-17.6272,0.0000,0.0000
1.7616,-172.8966,-17.7959,0.0000,0.0000
1.7718,-172.6545,-17.9746,0.0000,0.0000
1.7816,-172.4913,-18.0756,0.0000,0.0000
1.7916,-172.2936,-18.2285,0.0000,0.0000
1.8015,-172.1396,-18.3522,0.0000,0.0000
1.8263,-172.0252,-18.4591,0.0000,0.0000
1.8285,-171.8735,-18.5844,0.0000,0.0000
1.8311,-171.6893,-18.7338,0.0000,0.0000
1.8423,-171.5122,-18.8274,0.0000,0.0000
1.8516,-171.3225,-18.9549,0.0000,0.0000
1.8827,-171.0360,-19.2581,0.0000,0.0000
1.8851,-170.9418,-19.3653,0.0000,0.0000
1.8920,-170.7608,-19.4923,0.0000,0.0000
1.9018,-170.5934,-19.5731,0.0000,0.0000
1.9139,-170.4372,-19.7115,0.0000,0.0000
1.9435,-170.0304,-19.9383,0.0000,0.0000
1.9459,-169.8873,-20.0104,0.0000,0.0000
1.9517,-169.7294,-20.1020,0.0000,0.0000
1.9856,-169.4062,-20.3094,0.0000,0.0000
1.9880,-169.2391,-20.4337,0.0000,0.0000
1.9916,-169.0608,-20.5592,0.0000,0.0000
2.0153,-168.9357,-20.5901,0.0000,0.0000
2.0175,-168.8821,-20.6409,0.0000,0.0000
2.0213,-168.7928,-20.7515,0.0000,0.0000
2.0344,-168.7421,-20.7704,0.0000,0.0000
2.0417,-168.7063,-20.7968,0.0000,0.0000
2.0519,-168.7062,-20.8280,0.0000,0.0000
2.0616,-168.7103,-20.8559,0.0000,0.0000
2.0934,-168.5653,-20.8574,0.0000,0.0000
2.0956,-168.4799,-21.0076,0.0000,0.0000
2.1021,-168.3421,-21.0303,0.0000,0.0000
2.1354,-168.0699,-21.2206,0.0000,0.0000
2.1376,-168.0441,-21.1375,0.0000,0.0000
2.1411,-168.0180,-21.0552,0.0000,0.0000
2.1546,-167.9668,-21.0705,0.0000,0.0000
2.1620,-168.0472,-21.0800,0.0000,0.0000
2.1719,-168.3155,-20.9345,0.0000,0.0000
2.1820,-168.6668,-20.7676,0.0000,0.0000
2.1918,-168.8649,-20.7064,0.0000,0.0000
2.2016,-168.8922,-20.7208,0.0000,0.0000
2.2117,-168.8909,-20.7875,0.0000,0.0000
2.2216,-168.9478,-20.8110,0.0000,0.0000
2.2317,-168.9839,-20.7665,0.0000,0.0000
2.2417,-168.8158,-20.7747,0.0000,0.0000
2.2519,-168.5190,-20.7369,0.0000,0.0000
2.2616,-168.2453,-20.7064,0.0000,0.0000
2.2723,-168.0283,-20.8861,0.0000,0.0000
2.2815,-167.9108,-21.1198,0.0000,0.0000
2.2918,-167.7067,-21.0444,0.0000,0.0000
2.3269,-167.3201,-20.8388,0.0000,0.0000
2.3294,-167.3600,-20.8927,0.0000,0.0000
2.3317,-167.5977,-20.8542,0.0000,0.0000
2.3697,-168.1122,-20.6854,0.0000,0.0000
2.3720,-168.0730,-20.6612,0.0000,0.0000
2.3814,-168.0039,-20.6029,0.0000,0.0000
2.4165,-167.7629,-20.6513,0.0000,0.0000
2.4188,-167.7193,-20.6740,0.0000,0.0000
2.4214,-167.6377,-20.6553,0.0000,0.0000
2.4316,-167.6024,-20.6592,0.0000,0.0000
2.4418,-167.5369,-20.7453,0.0000,0.0000
2.4517,-167.3572,-20.7099,0.0000,0.0000
2.4616,-167.1249,-20.7226,0.0000,0.0000
2.4806,-166.9934,-20.9316,0.0000,0.0000
2.4826,-166.8872,-21.1378,0.0000,0.0000
2.4911,-166.8537,-21.3084,0.0000,0.0000
2.5018,-166.8025,-21.3043,0.0000,0.0000
2.5119,-166.8394,-21.1455,0.0000,0.0000
2.5221,-166.9020,-21.0796,0.0000,0.0000
2.5514,-167.1917,-21.0742,0.0000,0.0000
2.5537,-167.5155,-20.8887,0.0000,0.0000
2.5615,-167.6686,-20.8803,0.0000,0.0000
2.5718,-167.7005,-20.8989,0.0000,0.0000
2.5821,-167.6917,-20.8773,0.0000,0.0000
2.5972,-167.6769,-20.8888,0.0000,0.0000
2.6011,-167.8004,-20.8392,0.0000,0.0000
2.6115,-167.9993,-20.8146,0.0000,0.0000
2.6310,-168.1675,-20.8648,0.0000,0.0000
2.6334,-168.2438,-20.8528,0.0000,0.0000
2.6416,-168.2945,-20.8316,0.0000,0.0000
2.6518,-168.2884,-20.8545,0.0000,0.0000
2.6616,-168.2864,-20.9540,0.0000,0.0000
2.6718,-168.2427,-21.0898,0.0000,0.0000
2.6817,-168.1378,-21.2077,0.0000,0.0000
2.6918,-167.9871,-21.1928,0.0000,0.0000
2.7018,-167.9290,-21.0759,0.0000,0.0000
2.7122,-167.8792,-21.0262,0.0000,0.0000
2.7216,-167.7565,-21.0623,0.0000,0.0000
2.7317,-167.7053,-21.0821,0.0000,0.0000
2.7415,-167.8716,-21.0510,0.0000,0.0000
2.7517,-168.0764,-20.8472,0.0000,0.0000
2.7818,-168.2834,-20.6280,0.0000,0.0000
2.7842,-168.2104,-20.6276,0.0000,0.0000
2.7911,-168.2040,-20.7162,0.0000,0.0000
2.8112,-168.3211,-20.7071,0.0000,0.0000
2.8134,-168.4737,-20.6987,0.0000,0.0000
2.8219,-168.4971,-20.6962,0.0000,0.0000
2.8314,-168.3908,-20.6757,0.0000,0.0000
2.8662,-168.0282,-20.7816,0.0000,0.0000
2.8685,-167.9496,-20.9738,0.0000,0.0000
2.8715,-167.8626,-21.1484,0.0000,0.0000
2.8967,-167.7094,-21.2215,0.0000,0.0000
2.8988,-167.5923,-21.1686,0.0000,0.0000
2.9011,-167.5289,-21.1388,0.0000,0.0000
2.9276,-167.4538,-21.1307,0.0000,0.0000
2.9298,-167.3684,-21.1045,0.0000,0.0000
2.9318,-167.3008,-21.0688,0.0000,0.0000
2.9413,-167.4224,-20.9664,0.0000,0.0000
2.9628,-167.7354,-20.7516,0.0000,0.0000
2.9650,-168.0064,-20.4583,0.0000,0.0000
2.9717,-168.0528,-20.4292,0.0000,0.0000
2.9815,-168.0626,-20.3876,0.0000,0.0000
2.9919,-168.2158,-20.3626,0.0000,0.0000
3.0015,-168.3188,-20.3686,0.0000,0.0000
3.0119,-168.4568,-20.4086,0.0000,0.0000
3.0217,-168.4786,-20.4185,0.0000,0.0000
3.0317,-168.2397,-20.3669,0.0000,0.0000
3.0419,-167.9153,-20.3833,0.0000,0.0000
3.0737,-167.5010,-20.6344,0.0000,0.0000
3.0760,-167.4305,-20.8665,0.0000,0.0000
3.0816,-167.4193,-21.0703,0.0000,0.0000
3.0916,-167.3439,-21.1107,0.0000,0.0000
3.1017,-167.1805,-21.0318,0.0000,0.0000
3.1349,-166.9978,-21.0332,0.0000,0.0000
3.1372,-166.9041,-21.0330,0.0000,0.0000
3.1429,-166.8452,-20.9147,0.0000,0.0000
3.1779,-167.3800,-20.4775,0.0000,0.0000
3.1801,-167.5757,-20.2844,0.0000,0.0000
3.1823,-167.6373,-20.3207,0.0000,0.0000
3.1914,-167.7018,-20.2241,0.0000,0.0000
3.2220,-167.8279,-20.2733,0.0000,0.0000
3.2244,-167.8307,-20.2867,0.0000,0.0000
3.2315,-167.8978,-20.3003,0.0000,0.0000
3.2653,-167.9855,-20.2088,0.0000,0.0000
3.2676,-167.8714,-20.2795,0.0000,0.0000
3.2714,-167.7488,-20.4063,0.0000,0.0000
3.3072,-167.5862,-20.7642,0.0000,0.0000
3.3095,-167.5218,-20.8087,0.0000,0.0000
3.3117,-167.4185,-20.6418,0.0000,0.0000
3.3217,-167.2844,-20.4724,0.0000,0.0000
3.3381,-167.2182,-20.4872,0.0000,0.0000
3.3414,-167.3185,-20.3554,0.0000,0.0000
3.3518,-167.4450,-19.9818,0.0000,0.0000
3.3614,-167.4962,-19.7916,0.0000,0.0000
3.3717,-167.5473,-19.5935,0.0000,0.0000
3.3817,-167.5931,-19.6413,0.0000,0.0000
3.3915,-167.6806,-19.8512,0.0000,0.0000
3.4014,-167.8031,-19.8826,0.0000,0.0000
3.4117,-168.0225,-19.8335,0.0000,0.0000
3.4215,-168.0650,-19.6695,0.0000,0.0000
3.4321,-168.0849,-19.6360,0.0000,0.0000
3.4414,-168.0701,-19.6514,0.0000,0.0000
3.4515,-167.9893,-19.7939,0.0000,0.0000
3.4613,-167.8682,-19.8964,0.0000,0.0000
3.4722,-167.7316,-19.9861,0.0000,0.0000
3.4915,-167.6306,-20.0364,0.0000,0.0000
3.4936,-167.5096,-19.9777,0.0000,0.0000
3.5027,-167.3868,-19.8880,0.0000,0.0000
3.5237,-167.2621,-19.8812,0.0000,0.0000
3.5258,-167.2258,-19.8952,0.0000,0.0000
3.5314,-167.4016,-19.8627,0.0000,0.0000
3.5548,-167.5863,-19.4857,0.0000,0.0000
3.5567,-167.6732,-19.4104,0.0000,0.0000
3.5609,-167.6423,-19.4137,0.0000,0.0000
3.5867,-167.5618,-19.3691,0.0000,0.0000
3.5886,-167.4820,-19.4288,0.0000,0.0000
3.5914,-167.4571,-19.4216,0.0000,0.0000
3.6017,-167.5033,-19.4242,0.0000,0.0000
3.6116,-167.5139,-19.4233,0.0000,0.0000
3.6334,-167.5135,-19.4599,0.0000,0.0000
3.6358,-167.4569,-19.5491,0.0000,0.0000
3.6413,-167.3205,-19.5752,0.0000,0.0000
3.6639,-167.2128,-19.6772,0.0000,0.0000
3.6663,-167.0953,-19.8425,0.0000,0.0000
3.6715,-166.9585,-19.9262,0.0000,0.0000
3.6946,-166.8356,-19.9381,0.0000,0.0000
3.6969,-166.7708,-19.8417,0.0000,0.0000
3.7011,-166.8420,-19.7802,0.0000,0.0000
3.7121,-167.0012,-19.8289,0.0000,0.0000
3.7220,-167.5009,-20.6066,0.0000,0.0000
3.7322,-167.6871,-19.4005,0.0000,0.0000
3.7418,-167.7639,-19.4078,0.0000,0.0000
3.7516,-167.8549,-19.2949,0.0000,0.0000
3.7615,-167.9241,-19.1950,0.0000,0.0000
3.7731,-168.0378,-19.1561,0.0000,0.0000
3.7907,-168.1624,-19.2184,0.0000,0.0000
3.7929,-168.3190,-19.2728,0.0000,0.0000
3.8020,-168.3050,-19.2485,0.0000,0.0000
3.8123,-168.0865,-19.2133,0.0000,0.0000
3.8223,-167.7887,-19.1478,0.0000,0.0000
3.8315,-167.5060,-19.1210,0.0000,0.0000
3.8516,-167.3682,-19.2895,0.0000,0.0000
3.8536,-167.3189,-19.5205,0.0000,0.0000
3.8611,-167.2387,-19.5699,0.0000,0.0000
3.8834,-167.1253,-19.4583,0.0000,0.0000
3.8859,-167.0478,-19.2972,0.0000,0.0000
3.8918,-167.1310,-19.3670,0.0000,0.0000
3.9017,-167.2388,-19.3802,0.0000,0.0000
3.9120,-167.3380,-19.2178,0.0000,0.0000
