time[s], wr_x[mm], wr_y[mm], spd, spd_avg 
0.0004,-335.4885,-44.4492,0.0000,0.0000
0.0667,-335.5179,-44.3868,0.0000,0.0000
0.0754,-335.5240,-44.4092,0.0000,0.0000
0.0942,-335.4775,-44.4214,0.0000,0.0000
0.0981,-335.4219,-44.4128,0.0000,0.0000
0.1145,-335.0669,-44.4348,0.0000,0.0000
0.1204,-334.2366,-44.4825,0.0000,0.0000
0.1235,-332.9663,-44.4963,0.0000,0.0000
0.1338,-331.3823,-44.5330,0.0000,0.0000
0.1433,-329.4655,-44.6214,0.0000,0.0000
0.1648,-327.4992,-44.7068,0.0000,0.0000
0.1671,-325.7103,-44.7509,0.0000,0.0000
0.1738,-323.9617,-44.7914,0.0000,0.0000
0.1842,-322.3496,-44.7157,0.0000,0.0000
0.1951,-321.1212,-44.7880,0.0000,0.0000
0.2038,-320.3946,-44.9715,0.0000,0.0000
0.2141,-320.0226,-45.0267,0.0000,0.0000
0.2238,-319.9390,-45.0542,0.0000,0.0000
0.2537,-319.9089,-44.9349,0.0000,0.0000
0.2562,-319.8277,-44.9532,0.0000,0.0000
0.2643,-319.7427,-44.9400,0.0000,0.0000
0.2739,-319.3716,-44.8478,0.0000,0.0000
0.2839,-318.4710,-44.8452,0.0000,0.0000
0.2936,-317.0629,-44.9456,0.0000,0.0000
0.3040,-315.2599,-45.0072,0.0000,0.0000
0.3138,-313.1098,-45.1112,0.0000,0.0000
0.3240,-310.9075,-45.2912,0.0000,0.0000
0.3342,-308.9374,-45.4273,0.0000,0.0000
0.3440,-306.9771,-45.5623,0.0000,0.0000
0.3539,-305.0003,-45.4561,0.0000,0.0000
0.3641,-303.3870,-45.5627,0.0000,0.0000
0.3741,-302.4911,-45.8254,0.0000,0.0000
0.3841,-302.1421,-45.9121,0.0000,0.0000
0.3940,-302.0936,-45.8499,0.0000,0.0000
0.4237,-302.4936,-45.6519,0.0000,0.0000
0.4260,-302.6223,-45.6482,0.0000,0.0000
0.4343,-302.6755,-45.7623,0.0000,0.0000
0.4677,-302.1470,-45.6417,0.0000,0.0000
0.4700,-301.0234,-45.6227,0.0000,0.0000
0.4738,-299.5654,-45.7289,0.0000,0.0000
0.4846,-297.8579,-45.8220,0.0000,0.0000
0.4939,-296.2388,-45.7985,0.0000,0.0000
0.5042,-294.5845,-45.8661,0.0000,0.0000
0.5138,-292.8256,-45.9465,0.0000,0.0000
0.5239,-291.1352,-46.0390,0.0000,0.0000
0.5339,-289.7161,-46.1373,0.0000,0.0000
0.5443,-288.8315,-46.2264,0.0000,0.0000
0.5538,-288.5161,-46.3470,0.0000,0.0000
0.5640,-288.4917,-46.3586,0.0000,0.0000
0.5739,-288.6229,-46.3093,0.0000,0.0000
0.5842,-288.7435,-46.2353,0.0000,0.0000
0.5938,-288.7654,-46.2247,0.0000,0.0000
0.6041,-288.7131,-46.1848,0.0000,0.0000
0.6139,-288.3207,-46.0744,0.0000,0.0000
0.6240,-287.2524,-45.9623,0.0000,0.0000
0.6337,-285.5473,-45.9713,0.0000,0.0000
0.6436,-283.4283,-46.1089,0.0000,0.0000
0.6538,-281.0210,-46.3321,0.0000,0.0000
0.6637,-278.7559,-46.4459,0.0000,0.0000
0.6736,-276.4631,-46.3834,0.0000,0.0000
0.6836,-274.0503,-46.3825,0.0000,0.0000
0.6938,-272.0213,-46.5588,0.0000,0.0000
0.7281,-270.0410,-46.7189,0.0000,0.0000
0.7304,-269.6381,-46.6674,0.0000,0.0000
0.7346,-269.6078,-46.4981,0.0000,0.0000
0.7633,-270.3429,-45.9617,0.0000,0.0000
0.7656,-270.4845,-45.9985,0.0000,0.0000
0.7938,-270.6479,-46.1392,0.0000,0.0000
0.7961,-270.8618,-46.0864,0.0000,0.0000
0.8042,-271.0191,-45.9841,0.0000,0.0000
0.8377,-270.1149,-45.8963,0.0000,0.0000
0.8401,-268.8302,-46.0724,0.0000,0.0000
0.8438,-267.2334,-46.2754,0.0000,0.0000
0.8812,-264.1976,-46.3204,0.0000,0.0000
0.8837,-262.8078,-46.2931,0.0000,0.0000
0.8857,-261.2538,-46.3321,0.0000,0.0000
0.8938,-259.6492,-46.5301,0.0000,0.0000
0.9119,-258.3975,-46.7587,0.0000,0.0000
0.9140,-257.7612,-46.9115,0.0000,0.0000
0.9239,-257.5746,-46.8407,0.0000,0.0000
0.9438,-257.6505,-46.6400,0.0000,0.0000
0.9461,-257.8744,-46.4542,0.0000,0.0000
0.9539,-257.8845,-46.4272,0.0000,0.0000
0.9643,-257.6340,-46.5078,0.0000,0.0000
0.9743,-257.4407,-46.6175,0.0000,0.0000
0.9864,-257.2865,-46.5872,0.0000,0.0000
1.0154,-255.8476,-46.3812,0.0000,0.0000
1.0177,-254.2072,-46.3770,0.0000,0.0000
1.0241,-252.1994,-46.3518,0.0000,0.0000
1.0343,-249.8512,-46.5706,0.0000,0.0000
1.0439,-247.3815,-46.9176,0.0000,0.0000
1.0541,-244.7058,-47.0037,0.0000,0.0000
1.0638,-241.9326,-47.1323,0.0000,0.0000
1.0741,-239.4332,-47.2411,0.0000,0.0000
1.0961,-237.5477,-47.4125,0.0000,0.0000
1.0992,-236.1928,-47.5220,0.0000,0.0000
1.1035,-235.3474,-47.4286,0.0000,0.0000
1.1411,-234.9092,-47.2961,0.0000,0.0000
1.1434,-235.1490,-47.0487,0.0000,0.0000
1.1456,-235.3954,-46.9385,0.0000,0.0000
1.1540,-235.4095,-46.9119,0.0000,0.0000
1.1839,-235.5193,-46.9854,0.0000,0.0000
1.1862,-235.5546,-46.9464,0.0000,0.0000
1.1944,-235.5208,-46.9090,0.0000,0.0000
1.2137,-235.4184,-46.9527,0.0000,0.0000
1.2159,-235.2132,-47.0043,0.0000,0.0000
1.2238,-234.7087,-47.0603,0.0000,0.0000
1.2341,-233.7250,-47.0659,0.0000,0.0000
1.2444,-232.3079,-47.0518,0.0000,0.0000
1.2539,-230.4693,-47.0378,0.0000,0.0000
1.2638,-228.4081,-47.2029,0.0000,0.0000
1.2741,-226.2465,-47.5101,0.0000,0.0000
1.2838,-224.2178,-47.6281,0.0000,0.0000
1.2940,-222.2553,-47.6760,0.0000,0.0000
1.3041,-220.2863,-47.7605,0.0000,0.0000
1.3142,-218.4389,-47.7912,0.0000,0.0000
1.3237,-217.2355,-47.9426,0.0000,0.0000
1.3339,-216.5933,-48.1079,0.0000,0.0000
1.3453,-216.2648,-48.0330,0.0000,0.0000
1.3542,-216.2839,-47.8471,0.0000,0.0000
1.3673,-216.5696,-47.5984,0.0000,0.0000
1.3744,-216.6917,-47.4113,0.0000,0.0000
1.3840,-216.6246,-47.4034,0.0000,0.0000
1.3941,-216.4045,-47.4310,0.0000,0.0000
1.4039,-215.8777,-47.3556,0.0000,0.0000
1.4142,-214.7036,-47.2764,0.0000,0.0000
1.4240,-213.0367,-47.2199,0.0000,0.0000
1.4341,-211.0680,-47.2999,0.0000,0.0000
1.4441,-208.8849,-47.6205,0.0000,0.0000
1.4547,-206.7655,-47.9537,0.0000,0.0000
1.4652,-204.6132,-48.0765,0.0000,0.0000
1.4984,-200.3805,-48.1560,0.0000,0.0000
1.5004,-198.9135,-48.4175,0.0000,0.0000
1.5035,-197.9751,-48.5999,0.0000,0.0000
1.5398,-197.4142,-48.5235,0.0000,0.0000
1.5420,-197.5523,-48.2863,0.0000,0.0000
1.5438,-197.7855,-47.9690,0.0000,0.0000
1.5537,-198.0226,-47.8264,0.0000,0.0000
1.5693,-198.1602,-47.8167,0.0000,0.0000
1.5736,-198.2156,-47.8898,0.0000,0.0000
1.5836,-198.2477,-47.9401,0.0000,0.0000
1.5938,-198.3484,-47.8906,0.0000,0.0000
1.6036,-198.4760,-47.8076,0.0000,0.0000
1.6140,-198.3178,-47.7539,0.0000,0.0000
1.6238,-197.4641,-47.7892,0.0000,0.0000
1.6340,-196.1069,-48.0183,0.0000,0.0000
1.6438,-194.3057,-48.1774,0.0000,0.0000
1.6539,-192.2711,-48.2732,0.0000,0.0000
1.6831,-187.8700,-48.8215,0.0000,0.0000
1.6854,-185.6662,-49.1036,0.0000,0.0000
1.6940,-183.7760,-49.2622,0.0000,0.0000
1.7134,-182.1520,-49.4235,0.0000,0.0000
1.7157,-180.9389,-49.7017,0.0000,0.0000
1.7237,-180.1780,-49.7845,0.0000,0.0000
1.7444,-179.8133,-49.7036,0.0000,0.0000
1.7467,-179.7318,-49.6079,0.0000,0.0000
1.7541,-179.8202,-49.2976,0.0000,0.0000
1.7741,-179.9403,-49.2203,0.0000,0.0000
1.7762,-179.9682,-49.3133,0.0000,0.0000
1.7838,-179.9814,-49.3601,0.0000,0.0000
1.8066,-179.8747,-49.2465,0.0000,0.0000
1.8089,-179.3896,-49.1625,0.0000,0.0000
1.8138,-178.2782,-49.2101,0.0000,0.0000
1.8447,-175.0076,-49.4859,0.0000,0.0000
1.8470,-173.0292,-49.6220,0.0000,0.0000
1.8619,-171.1620,-49.6860,0.0000,0.0000
1.8654,-169.6214,-49.8168,0.0000,0.0000
1.8736,-168.3794,-49.9442,0.0000,0.0000
1.8843,-167.4091,-50.0848,0.0000,0.0000
1.8947,-166.8004,-50.2350,0.0000,0.0000
1.9047,-166.3440,-50.2224,0.0000,0.0000
1.9140,-165.9113,-50.0985,0.0000,0.0000
1.9239,-165.5370,-49.9511,0.0000,0.0000
1.9337,-165.2409,-49.9483,0.0000,0.0000
1.9440,-164.9258,-49.9762,0.0000,0.0000
1.9548,-164.4757,-49.9660,0.0000,0.0000
1.9639,-163.4854,-49.9153,0.0000,0.0000
1.9850,-162.0518,-49.9226,0.0000,0.0000
1.9869,-160.2959,-50.0711,0.0000,0.0000
1.9935,-158.3289,-50.2966,0.0000,0.0000
2.0236,-153.9194,-50.5617,0.0000,0.0000
2.0259,-151.8279,-50.7059,0.0000,0.0000
2.0340,-149.8920,-50.9639,0.0000,0.0000
2.0597,-148.0535,-51.1514,0.0000,0.0000
2.0620,-146.7363,-51.2808,0.0000,0.0000
2.0641,-146.0012,-51.3040,0.0000,0.0000
2.0759,-145.6666,-51.1134,0.0000,0.0000
2.0919,-145.6183,-50.9502,0.0000,0.0000
2.0943,-145.8048,-50.8676,0.0000,0.0000
2.1042,-145.9371,-50.8148,0.0000,0.0000
2.1233,-146.0423,-50.7726,0.0000,0.0000
2.1255,-146.1790,-50.8197,0.0000,0.0000
2.1348,-146.2876,-50.7784,0.0000,0.0000
2.1441,-146.2240,-50.7192,0.0000,0.0000
2.1546,-145.6381,-50.6800,0.0000,0.0000
2.1638,-144.4919,-50.6992,0.0000,0.0000
2.1740,-143.1156,-50.9266,0.0000,0.0000
2.1842,-141.4718,-51.1143,0.0000,0.0000
2.1941,-139.6011,-51.1353,0.0000,0.0000
2.2167,-137.6042,-51.1054,0.0000,0.0000
2.2207,-135.7139,-51.2661,0.0000,0.0000
2.2237,-133.9243,-51.5971,0.0000,0.0000
2.2342,-132.3448,-51.8010,0.0000,0.0000
2.2439,-131.1736,-51.7966,0.0000,0.0000
2.2652,-130.4691,-51.7766,0.0000,0.0000
2.2676,-130.1569,-51.6901,0.0000,0.0000
2.2741,-130.0922,-51.6972,0.0000,0.0000
2.2837,-130.1285,-51.7782,0.0000,0.0000
2.2945,-130.1796,-51.6995,0.0000,0.0000
2.3040,-130.1979,-51.7005,0.0000,0.0000
2.3140,-130.1985,-51.7046,0.0000,0.0000
2.3238,-130.1297,-51.6727,0.0000,0.0000
2.3340,-129.4694,-51.5977,0.0000,0.0000
2.3688,-126.3065,-51.8198,0.0000,0.0000
2.3711,-124.1973,-51.9130,0.0000,0.0000
2.3734,-121.7934,-51.9917,0.0000,0.0000
2.3996,-119.2408,-52.1712,0.0000,0.0000
2.4019,-116.6897,-52.2766,0.0000,0.0000
2.4040,-114.1297,-52.4392,0.0000,0.0000
2.4149,-111.4937,-52.5183,0.0000,0.0000
2.4237,-109.2194,-52.4391,0.0000,0.0000
2.4339,-107.6159,-52.6198,0.0000,0.0000
2.4445,-106.5876,-52.8958,0.0000,0.0000
2.4539,-105.9863,-52.9128,0.0000,0.0000
2.4793,-105.8119,-52.7940,0.0000,0.0000
2.4818,-105.9449,-52.6754,0.0000,0.0000
2.4839,-106.0055,-52.5135,0.0000,0.0000
2.4935,-106.0878,-52.4748,0.0000,0.0000
2.5101,-106.3240,-52.5735,0.0000,0.0000
2.5137,-106.6170,-52.5864,0.0000,0.0000
2.5245,-106.7894,-52.5229,0.0000,0.0000
2.5340,-106.7520,-52.5223,0.0000,0.0000
2.5443,-106.5273,-52.5373,0.0000,0.0000
2.5540,-106.0058,-52.5767,0.0000,0.0000
2.5732,-105.1608,-52.6909,0.0000,0.0000
2.5752,-103.9616,-52.7479,0.0000,0.0000
2.5839,-102.4466,-52.7254,0.0000,0.0000
2.5941,-100.7750,-52.7152,0.0000,0.0000
2.6043,-99.0276,-52.7300,0.0000,0.0000
2.6139,-97.3288,-52.8257,0.0000,0.0000
2.6242,-95.7699,-53.0353,0.0000,0.0000
2.6342,-94.3953,-53.1050,0.0000,0.0000
2.6441,-93.5152,-53.1493,0.0000,0.0000
2.6681,-93.1704,-53.1767,0.0000,0.0000
2.6705,-93.2754,-53.0160,0.0000,0.0000
2.6736,-93.5549,-52.9970,0.0000,0.0000
2.6843,-93.7504,-53.0767,0.0000,0.0000
2.6946,-94.0171,-53.1154,0.0000,0.0000
2.7044,-94.2987,-53.1349,0.0000,0.0000
2.7141,-94.5065,-53.1108,0.0000,0.0000
2.7242,-94.3534,-53.0058,0.0000,0.0000
2.7340,-93.6786,-53.0488,0.0000,0.0000
2.7444,-92.4505,-53.1412,0.0000,0.0000
2.7538,-90.7726,-53.2499,0.0000,0.0000
2.7646,-88.8749,-53.3736,0.0000,0.0000
2.7742,-86.8219,-53.5028,0.0000,0.0000
2.7844,-84.7158,-53.7235,0.0000,0.0000
2.7943,-82.6839,-53.7701,0.0000,0.0000
2.8045,-80.8808,-53.8339,0.0000,0.0000
2.8233,-79.3545,-53.8247,0.0000,0.0000
2.8258,-78.3820,-54.0072,0.0000,0.0000
2.8341,-77.8641,-54.1499,0.0000,0.0000
2.8454,-77.8301,-54.0360,0.0000,0.0000
2.8545,-77.9966,-53.9560,0.0000,0.0000
2.8644,-78.1591,-53.9422,0.0000,0.0000
2.8742,-78.2262,-53.8110,0.0000,0.0000
2.9041,-78.0440,-53.8670,0.0000,0.0000
2.9063,-77.4506,-53.9203,0.0000,0.0000
2.9142,-76.1026,-54.1111,0.0000,0.0000
2.9403,-74.3514,-54.0686,0.0000,0.0000
2.9425,-72.3664,-54.0180,0.0000,0.0000
2.9446,-70.4245,-54.1207,0.0000,0.0000
2.9539,-68.7312,-54.2204,0.0000,0.0000
2.9842,-65.7561,-54.1480,0.0000,0.0000
2.9863,-64.9529,-54.3476,0.0000,0.0000
2.9942,-64.5956,-54.4325,0.0000,0.0000
3.0041,-64.5025,-54.3794,0.0000,0.0000
3.0142,-64.6510,-54.4379,0.0000,0.0000
3.0245,-64.7077,-54.4035,0.0000,0.0000
3.0570,-64.6756,-54.3880,0.0000,0.0000
3.0592,-64.4191,-54.3008,0.0000,0.0000
3.0639,-63.4119,-54.2602,0.0000,0.0000
3.0744,-61.8794,-54.3704,0.0000,0.0000
3.0841,-59.9659,-54.3671,0.0000,0.0000
3.0944,-57.7650,-54.4986,0.0000,0.0000
3.1039,-55.6445,-54.7122,0.0000,0.0000
3.1147,-53.8850,-54.7289,0.0000,0.0000
3.1243,-52.2481,-54.8429,0.0000,0.0000
3.1343,-50.7613,-54.8795,0.0000,0.0000
3.1446,-49.7086,-55.0083,0.0000,0.0000
3.1541,-49.1423,-55.0952,0.0000,0.0000
3.1838,-48.9990,-54.9623,0.0000,0.0000
3.1862,-49.1125,-54.9866,0.0000,0.0000
3.1942,-49.0436,-55.0222,0.0000,0.0000
3.2271,-48.8718,-55.0455,0.0000,0.0000
3.2297,-48.4737,-55.0476,0.0000,0.0000
3.2343,-47.4594,-55.2623,0.0000,0.0000
3.2694,-44.3592,-55.4256,0.0000,0.0000
3.2718,-42.4416,-55.4371,0.0000,0.0000
3.2740,-40.4169,-55.5124,0.0000,0.0000
3.2844,-38.5002,-55.6385,0.0000,0.0000
3.3000,-36.8733,-55.8946,0.0000,0.0000
3.3040,-35.3640,-55.9304,0.0000,0.0000
3.3144,-34.0159,-55.8519,0.0000,0.0000
3.3309,-33.2071,-55.9578,0.0000,0.0000
3.3336,-32.9022,-56.0049,0.0000,0.0000
3.3446,-32.7660,-55.9835,0.0000,0.0000
3.3683,-32.4998,-56.0518,0.0000,0.0000
3.3705,-32.1746,-56.0678,0.0000,0.0000
3.3738,-31.8847,-56.0580,0.0000,0.0000
3.3842,-31.6117,-56.0143,0.0000,0.0000
3.3940,-31.2012,-55.9863,0.0000,0.0000
3.4043,-30.3759,-56.1024,0.0000,0.0000
3.4141,-29.1974,-56.1982,0.0000,0.0000
3.4304,-27.7926,-56.2546,0.0000,0.0000
3.4339,-26.1076,-56.3694,0.0000,0.0000
3.4443,-24.1609,-56.4379,0.0000,0.0000
3.4539,-22.0760,-56.4173,0.0000,0.0000
3.4643,-20.1078,-56.3228,0.0000,0.0000
3.4741,-18.4601,-56.4055,0.0000,0.0000
3.4842,-16.8366,-56.5721,0.0000,0.0000
3.4946,-15.0813,-56.6024,0.0000,0.0000
3.5038,-13.7384,-56.6115,0.0000,0.0000
3.5137,-13.0086,-56.6014,0.0000,0.0000
3.5243,-12.7709,-56.5903,0.0000,0.0000
3.5413,-12.8451,-56.6662,0.0000,0.0000
3.5446,-12.9538,-56.7670,0.0000,0.0000
3.5539,-13.0737,-56.7896,0.0000,0.0000
3.5640,-13.1312,-56.7395,0.0000,0.0000
3.5740,-13.1596,-56.7264,0.0000,0.0000
3.5841,-12.9253,-56.6867,0.0000,0.0000
3.5941,-12.0745,-56.9531,0.0000,0.0000
3.6046,-10.6138,-57.1502,0.0000,0.0000
3.6141,-8.6137,-57.1821,0.0000,0.0000
3.6360,-6.3935,-57.2483,0.0000,0.0000
3.6382,-4.0859,-57.2993,0.0000,0.0000
3.6439,-1.7320,-57.3500,0.0000,0.0000
3.6817,4.9511,-57.6811,0.0000,0.0000
3.6841,6.4634,-57.7225,0.0000,0.0000
3.6943,7.4504,-57.7856,0.0000,0.0000
3.7128,7.9542,-57.8020,0.0000,0.0000
3.7152,8.1592,-57.8020,0.0000,0.0000
3.7240,8.2301,-57.7978,0.0000,0.0000
3.7340,8.2852,-57.7653,0.0000,0.0000
3.7440,8.2518,-57.7748,0.0000,0.0000
3.7541,8.1251,-57.7986,0.0000,0.0000
3.7639,8.1263,-57.8015,0.0000,0.0000
3.7738,8.2510,-57.8337,0.0000,0.0000
3.7848,8.8165,-57.8506,0.0000,0.0000
3.7939,10.0383,-58.0104,0.0000,0.0000
3.8199,11.7732,-58.1598,0.0000,0.0000
3.8219,13.7950,-58.1689,0.0000,0.0000
3.8238,16.0534,-58.1985,0.0000,0.0000
3.8347,18.1434,-58.2943,0.0000,0.0000
3.8522,20.0231,-58.4030,0.0000,0.0000
3.8543,22.1178,-58.5024,0.0000,0.0000
3.8637,24.3826,-58.5683,0.0000,0.0000
3.8826,26.4414,-58.7560,0.0000,0.0000
3.8847,27.8317,-58.8257,0.0000,0.0000
3.8940,28.5832,-58.9140,0.0000,0.0000
3.9127,28.8571,-58.8358,0.0000,0.0000
3.9148,28.7912,-58.6292,0.0000,0.0000
3.9234,28.6765,-58.5881,0.0000,0.0000
3.9341,28.7511,-58.6569,0.0000,0.0000
3.9439,28.7778,-58.7291,0.0000,0.0000
3.9542,28.6512,-58.6706,0.0000,0.0000
3.9641,28.5269,-58.5894,0.0000,0.0000
3.9740,28.5794,-58.5867,0.0000,0.0000
3.9920,29.0824,-58.6158,0.0000,0.0000
3.9941,30.2136,-58.7595,0.0000,0.0000
4.0038,31.7639,-58.9904,0.0000,0.0000
4.0221,33.5678,-59.0211,0.0000,0.0000
4.0242,35.4991,-59.0021,0.0000,0.0000
4.0529,39.2151,-59.0966,0.0000,0.0000
4.0551,40.8996,-59.2733,0.0000,0.0000
4.0639,42.2360,-59.3854,0.0000,0.0000
4.0978,43.7402,-59.4130,0.0000,0.0000
4.1001,44.3070,-59.4097,0.0000,0.0000
4.1039,44.7767,-59.4525,0.0000,0.0000
4.1143,45.0695,-59.5335,0.0000,0.0000
4.1239,45.2092,-59.5602,0.0000,0.0000
4.1430,45.3463,-59.5345,0.0000,0.0000
4.1451,45.5123,-59.5323,0.0000,0.0000
4.1539,45.7310,-59.5457,0.0000,0.0000
4.1649,45.9135,-59.5029,0.0000,0.0000
4.1812,46.1788,-59.4614,0.0000,0.0000
4.1838,46.9090,-59.4475,0.0000,0.0000
4.1947,48.1883,-59.5701,0.0000,0.0000
4.2041,49.7446,-59.6818,0.0000,0.0000
4.2140,51.5792,-59.7667,0.0000,0.0000
4.2241,53.6466,-59.9617,0.0000,0.0000
4.2338,55.7298,-60.0236,0.0000,0.0000
4.2442,57.4982,-60.0834,0.0000,0.0000
4.2540,59.0491,-60.2252,0.0000,0.0000
4.2641,60.3546,-60.0662,0.0000,0.0000
4.2761,61.0259,-60.2685,0.0000,0.0000
4.2841,61.3535,-60.2031,0.0000,0.0000
4.2939,61.2360,-60.4583,0.0000,0.0000
4.3040,61.0486,-60.1801,0.0000,0.0000
4.3228,60.9092,-60.0257,0.0000,0.0000
4.3251,60.8753,-60.0259,0.0000,0.0000
4.3351,60.9267,-60.0727,0.0000,0.0000
4.3538,61.3837,-60.1656,0.0000,0.0000
4.3561,62.5807,-60.2574,0.0000,0.0000
4.3640,64.1853,-60.3909,0.0000,0.0000
4.3858,66.0582,-60.3658,0.0000,0.0000
4.3884,68.1615,-60.3796,0.0000,0.0000
4.3959,70.4227,-60.6503,0.0000,0.0000
4.4166,72.6957,-60.7414,0.0000,0.0000
4.4194,74.0007,-60.5960,0.0000,0.0000
4.4239,75.9142,-61.0528,0.0000,0.0000
4.4342,76.8171,-60.7444,0.0000,0.0000
4.4444,77.3340,-61.1772,0.0000,0.0000
4.4540,77.3186,-60.9228,0.0000,0.0000
4.4642,77.4233,-60.9417,0.0000,0.0000
4.4737,77.4899,-61.0454,0.0000,0.0000
4.4843,77.5686,-61.0871,0.0000,0.0000
4.4944,77.4271,-61.8262,0.0000,0.0000
4.5041,77.6896,-61.1184,0.0000,0.0000
4.5334,79.5529,-61.1065,0.0000,0.0000
4.5358,81.2195,-61.2436,0.0000,0.0000
4.5438,83.0117,-61.5916,0.0000,0.0000
4.5782,86.4726,-61.5006,0.0000,0.0000
4.5805,88.1254,-61.5281,0.0000,0.0000
4.5838,89.5312,-61.6718,0.0000,0.0000
4.5939,90.8201,-61.5592,0.0000,0.0000
4.6042,91.6192,-61.4925,0.0000,0.0000
4.6142,92.1298,-61.5339,0.0000,0.0000
4.6247,92.1101,-61.6883,0.0000,0.0000
4.6418,92.1409,-61.6370,0.0000,0.0000
4.6440,91.9139,-62.6002,0.0000,0.0000
4.6538,92.2164,-61.6244,0.0000,0.0000
4.6642,92.1553,-62.3500,0.0000,0.0000
4.6744,92.4758,-61.7728,0.0000,0.0000
4.6845,93.2598,-61.8196,0.0000,0.0000
4.6941,94.5913,-61.9087,0.0000,0.0000
4.7050,95.6148,-61.8289,0.0000,0.0000
4.7142,96.6279,-61.9671,0.0000,0.0000
4.7399,97.6828,-61.8774,0.0000,0.0000
4.7422,98.7985,-61.8908,0.0000,0.0000
4.7444,99.8511,-62.0271,0.0000,0.0000
4.7541,100.8740,-62.0137,0.0000,0.0000
4.7748,101.9233,-62.0036,0.0000,0.0000
4.7771,103.1610,-62.1629,0.0000,0.0000
4.7842,103.9665,-61.8897,0.0000,0.0000
4.8194,105.7007,-62.0175,0.0000,0.0000
4.8218,106.2457,-62.0876,0.0000,0.0000
4.8239,106.4313,-62.0120,0.0000,0.0000
4.8621,106.4717,-62.1903,0.0000,0.0000
4.8643,106.2279,-62.1374,0.0000,0.0000
4.8738,106.0744,-62.1336,0.0000,0.0000
4.9071,105.5534,-62.0989,0.0000,0.0000
4.9096,105.4730,-62.1891,0.0000,0.0000
4.9143,105.7515,-62.6621,0.0000,0.0000
4.9377,106.5097,-62.7178,0.0000,0.0000
4.9400,107.5694,-62.8750,0.0000,0.0000
4.9438,108.8846,-63.1853,0.0000,0.0000
4.9541,110.8836,-62.4810,0.0000,0.0000
4.9641,NaN,NaN,0.0000,0.0000
4.9743,113.4001,-60.9062,0.0000,0.0000
4.9845,117.5490,-62.1691,0.0000,0.0000
5.0187,121.0086,-62.7554,0.0000,0.0000
5.0209,122.2070,-62.9512,0.0000,0.0000
5.0241,122.8850,-62.9252,0.0000,0.0000
5.0616,122.8607,-62.6767,0.0000,0.0000
5.0639,122.7889,-62.7514,0.0000,0.0000
5.0744,122.5957,-62.8484,0.0000,0.0000
5.1053,122.2458,-62.4784,0.0000,0.0000
5.1076,122.2035,-61.9102,0.0000,0.0000
5.1142,122.5812,-62.5605,0.0000,0.0000
5.1242,123.6485,-62.5987,0.0000,0.0000
5.1359,125.3035,-62.7220,0.0000,0.0000
