time[s], wr_x[mm], wr_y[mm] 
0.0002,-1396.1865,-654.0844
0.0229,-1396.1495,-654.1163
0.0248,-1396.1744,-654.1102
0.0252,-1396.1035,-654.1443
0.0335,-1395.9802,-654.1115
0.0437,-1395.6654,-654.1512
0.0536,-1394.9990,-654.3010
0.0638,-1393.6813,-654.4333
0.0737,-1391.8971,-654.5028
0.0839,-1389.7808,-654.5231
0.0937,-1387.5115,-654.4036
0.1148,-1385.1782,-654.2066
0.1154,-1382.8626,-654.2606
0.1238,-1380.4391,-654.4651
0.1460,-1377.3958,-653.8823
0.1468,-1375.0567,-653.7082
0.1537,-1372.3320,-653.6462
0.1771,-1369.5176,-653.6654
0.1778,-1366.8047,-653.5422
0.1838,-1363.9841,-653.3909
0.2082,-1361.0134,-653.4190
0.2087,-1358.2272,-653.4549
0.2137,-1355.4493,-653.4264
0.2238,-1352.5145,-653.4206
0.2334,-1349.6552,-653.4344
0.2438,-1346.7474,-653.2752
0.2644,-1343.8007,-653.3137
0.2654,-1340.9188,-653.3703
0.2737,-1338.0162,-653.2100
0.2963,-1335.1747,-653.2021
0.2969,-1332.3559,-653.1762
0.3038,-1329.4443,-652.9222
0.3272,-1326.4397,-652.8007
0.3280,-1323.4013,-652.7790
0.3336,-1320.3864,-652.5814
0.3587,-1317.4073,-652.4991
0.3594,-1314.5214,-652.4203
0.3639,-1311.5511,-652.2031
0.3737,-1308.4908,-652.1370
0.3904,-1305.4969,-652.0652
0.3936,-1302.4231,-651.8607
0.4038,-1299.4786,-651.9185
0.4215,-1296.5390,-651.9416
0.4238,-1293.1978,-651.6886
0.4336,-1290.3576,-651.7367
0.4556,-1287.5175,-651.7693
0.4563,-1284.7433,-651.5103
0.4640,-1281.8978,-651.4020
0.4734,-1279.0186,-651.3801
0.4839,-1276.0737,-651.1085
0.4937,-1273.0950,-650.9375
0.5196,-1270.0447,-650.8266
0.5203,-1267.0426,-650.6057
0.5238,-1264.0546,-650.4851
0.5336,-1260.9438,-650.3614
0.5509,-1257.8937,-650.0716
0.5537,-1254.8990,-649.9842
0.5638,-1251.9183,-649.9058
0.5809,-1248.8882,-649.6568
0.5838,-1245.9203,-649.5976
0.5937,-1242.9034,-649.5359
0.6180,-1239.9492,-649.2992
0.6186,-1237.0660,-649.2514
0.6239,-1234.1230,-649.1111
0.6492,-1231.2839,-648.8943
0.6502,-1228.4106,-648.9211
0.6536,-1225.4584,-648.7282
0.6639,-1222.5826,-648.4995
0.6803,-1219.5864,-648.4037
0.6838,-1216.5765,-648.2215
0.6936,-1213.6382,-647.9820
0.7118,-1210.6038,-647.9353
0.7134,-1207.5504,-647.7684
0.7239,-1204.6746,-647.5317
0.7415,-1201.5761,-647.3783
0.7438,-1198.5501,-647.1882
0.7536,-1195.6353,-646.9829
0.7644,-1192.6736,-646.8923
0.7736,-1189.7706,-646.7430
0.7839,-1186.9263,-646.4600
0.7952,-1184.0390,-646.3298
0.8040,-1181.0936,-646.1915
0.8138,-1177.2660,-645.2622
0.8239,-1174.3385,-645.1786
0.8336,-1171.4628,-644.9348
0.8439,-1168.5262,-644.6219
0.8536,-1165.5450,-644.4175
0.8639,-1162.5681,-644.2115
0.8734,-1159.5722,-643.8624
0.8838,-1156.5395,-643.6499
0.8937,-1153.5414,-643.4662
0.9039,-1150.5777,-643.0915
0.9137,-1147.6150,-642.9321
0.9239,-1144.6534,-642.8419
0.9337,-1141.6393,-642.4980
0.9439,-1138.7090,-642.3513
0.9537,-1135.7977,-642.1653
0.9640,-1132.8237,-641.7667
0.9737,-1129.8742,-641.5302
0.9979,-1126.9217,-641.2708
0.9986,-1123.8812,-640.9974
1.0039,-1120.9802,-640.8052
1.0289,-1118.0938,-640.4772
1.0299,-1115.1368,-640.0319
1.0336,-1112.1790,-639.7871
1.0439,-1109.2172,-639.5216
1.0602,-1106.3534,-639.1199
1.0639,-1103.5774,-638.9506
1.0737,-1100.6606,-638.5665
1.0915,-1097.6992,-638.0787
1.0936,-1094.7077,-637.9638
1.1039,-1091.5546,-637.6719
1.1140,-1088.5234,-637.3167
1.1342,-1085.6010,-637.2794
1.1349,-1082.6476,-636.9079
1.1440,-1079.8091,-636.5389
1.1657,-1077.0435,-636.4917
1.1666,-1074.1906,-636.1638
1.1737,-1071.3997,-635.8369
1.1976,-1068.5865,-635.6667
1.1983,-1065.6470,-635.2411
1.2039,-1062.6800,-634.7807
1.2286,-1059.6286,-634.4273
1.2295,-1056.5964,-633.9820
1.2336,-1053.6207,-633.6052
1.2441,-1050.5376,-633.4408
1.2538,-1047.5122,-633.0578
1.2642,-1044.5942,-632.6933
1.2737,-1041.6320,-632.4645
1.2840,-1038.7071,-632.0694
1.2937,-1035.7777,-631.7328
1.3038,-1032.8165,-631.4093
1.3264,-1029.8751,-631.0923
1.3273,-1026.9611,-630.8199
1.3336,-1024.0576,-630.4628
1.3579,-1021.1287,-630.1307
1.3586,-1018.1957,-629.7813
1.3639,-1015.2982,-629.4395
1.3891,-1012.3499,-629.1075
1.3900,-1009.3022,-628.7238
1.3936,-1006.3216,-628.3093
1.4039,-1003.4055,-627.9952
1.4200,-1000.4447,-627.7014
1.4238,-997.5506,-627.3329
1.4336,-994.6561,-627.0820
1.4439,-991.6473,-626.6843
1.4668,-988.6094,-626.3287
1.4676,-985.6457,-625.9896
1.4736,-982.5639,-625.4569
1.4980,-979.5922,-625.0133
1.4987,-976.5852,-624.6367
1.5038,-973.5292,-624.1962
1.5291,-970.5866,-623.7435
1.5301,-967.6005,-623.2606
1.5336,-964.5987,-622.7977
1.5438,-961.6749,-622.3927
1.5603,-958.7065,-621.9302
1.5639,-955.6842,-621.5546
1.5736,-952.6700,-621.2030
1.5839,-949.6939,-620.6777
1.5935,-946.7007,-620.3386
1.6038,-943.7216,-620.0040
1.6222,-940.7270,-619.3654
1.6236,-937.7230,-618.9741
1.6336,-934.7473,-618.6843
1.6438,-931.8279,-618.1103
1.6691,-928.9074,-617.7114
1.6698,-925.9434,-617.2498
1.6736,-922.8844,-616.7703
1.6838,-919.9167,-616.4168
1.7000,-916.9196,-615.9254
1.7038,-913.9480,-615.3789
1.7136,-911.0359,-615.0660
1.7321,-908.1432,-614.4978
1.7334,-905.2855,-613.8361
1.7438,-902.3837,-613.4086
1.7633,-899.5097,-612.8432
1.7641,-896.5805,-612.3654
1.7736,-893.7110,-611.9479
1.7944,-890.8240,-611.2850
1.7951,-887.7752,-610.7362
1.8038,-884.7180,-610.2837
1.8269,-881.6439,-609.7302
1.8279,-878.6223,-609.3262
1.8336,-875.6930,-609.0244
1.8586,-872.7893,-608.4627
1.8593,-869.9148,-608.0903
1.8641,-867.0349,-607.6707
1.8737,-864.2363,-607.0837
1.8897,-861.2756,-606.6758
1.8936,-858.2537,-606.1112
1.9044,-855.3163,-605.3653
1.9208,-852.2386,-604.8727
1.9238,-849.1125,-604.3752
1.9336,-846.1432,-603.7206
1.9524,-843.1059,-603.1882
1.9534,-840.0604,-602.7015
1.9638,-837.1082,-602.1532
1.9834,-834.1312,-601.6996
1.9843,-831.2250,-601.1069
1.9936,-828.2979,-600.5449
2.0149,-825.2849,-600.0473
2.0157,-822.2676,-599.4407
2.0237,-819.2796,-598.9428
2.0448,-816.2369,-598.4759
2.0456,-813.3397,-597.9127
2.0535,-810.4350,-597.4036
2.0637,-807.4293,-596.7969
2.0736,-804.3873,-596.1993
2.0838,-801.3416,-595.6582
2.0934,-798.3259,-595.0515
2.1037,-795.3881,-594.5249
2.1136,-792.3963,-594.0059
2.1239,-789.3965,-593.4400
2.1335,-786.4945,-592.9619
2.1438,-783.5416,-592.3870
2.1536,-780.4887,-591.7675
2.1851,-774.4910,-590.4877
2.1859,-771.3900,-589.8519
2.1939,-768.4357,-589.1324
2.2163,-765.4535,-588.3436
2.2171,-762.3976,-587.8141
2.2236,-759.4294,-587.0963
2.2476,-756.4619,-586.3259
2.2483,-753.4763,-585.8787
2.2538,-750.5855,-585.2001
2.2788,-747.7084,-584.4854
2.2797,-744.7353,-584.1878
2.2836,-741.8120,-583.5201
2.2938,-738.9661,-582.6959
2.3097,-736.0215,-582.3110
2.3138,-733.1457,-581.5528
2.3236,-730.3263,-580.7021
2.3399,-727.3482,-580.2762
2.3436,-724.3728,-579.5137
2.3538,-721.5134,-578.8739
2.3741,-718.6139,-578.4644
2.3750,-715.8413,-577.5193
2.3836,-713.0334,-576.8518
2.4058,-710.1336,-576.4307
2.4065,-707.3823,-575.4469
2.4138,-704.6257,-574.7984
2.4367,-701.7558,-574.3542
2.4376,-698.9716,-573.4531
2.4436,-696.1367,-572.7397
2.4685,-693.1117,-572.1693
2.4692,-690.2324,-571.3292
2.4738,-687.4307,-570.7325
2.4840,-684.5917,-570.0149
2.4998,-681.8365,-569.0511
2.5047,-678.9553,-568.4473
2.5138,-675.9772,-567.7556
2.5236,-673.2274,-566.9492
2.5338,-670.3358,-566.5849
2.5436,-667.4637,-565.9169
2.5624,-664.6870,-565.1385
2.5634,-661.7614,-564.6865
2.5739,-658.8493,-563.9138
2.5936,-656.1434,-563.1300
2.5945,-653.2840,-562.7168
2.6036,-650.3925,-561.9560
2.6250,-647.6397,-561.1173
2.6257,-644.6928,-560.4987
2.6338,-641.8427,-559.7560
2.6695,-636.1311,-558.2345
2.6706,-633.2773,-557.4744
2.6737,-630.4892,-556.7713
2.6838,-627.6168,-556.1530
2.7011,-624.7934,-555.4286
2.7037,-621.9692,-554.6883
2.7137,-619.0354,-553.9553
2.7237,-616.1982,-553.1364
2.7335,-613.3218,-552.3139
2.7500,-610.3896,-551.6441
2.7535,-607.4923,-550.9592
2.7637,-604.6563,-550.1310
2.7812,-601.7398,-549.3419
2.7837,-598.8465,-548.6271
2.7936,-595.9841,-547.7479
2.8128,-593.0573,-547.0360
2.8135,-590.1415,-546.3477
2.8238,-587.2535,-545.4514
2.8437,-584.3148,-544.6891
2.8446,-581.3260,-543.9703
2.8536,-578.2964,-543.1206
2.8737,-575.2061,-542.2393
2.8745,-572.1450,-541.2441
2.8839,-569.1484,-540.1596
2.9049,-566.0995,-539.3577
2.9058,-563.0629,-538.5442
2.9137,-560.0562,-537.5047
2.9363,-557.0018,-536.7495
2.9370,-553.9885,-535.9112
2.9439,-551.0078,-534.9695
2.9676,-548.0168,-534.4264
2.9685,-545.0429,-533.5192
2.9736,-542.1037,-532.5237
2.9989,-539.1153,-531.9701
2.9997,-536.2230,-530.9951
3.0038,-533.2813,-530.0315
3.0136,-530.3199,-529.3721
3.0306,-527.2755,-528.3889
3.0336,-524.2717,-527.4531
3.0439,-521.2431,-526.6606
3.0619,-518.3519,-525.6322
3.0637,-515.3986,-524.8357
3.0736,-512.4683,-523.9720
3.0935,-509.5741,-522.8732
3.0942,-506.6317,-522.1449
3.1038,-503.6797,-521.2762
3.1242,-500.7605,-520.2308
3.1253,-497.8067,-519.4968
3.1337,-494.8380,-518.5915
3.1559,-491.8423,-517.6376
3.1566,-488.7856,-516.7296
3.1638,-485.8023,-515.7318
3.1737,-482.8649,-514.8671
3.1838,-480.0464,-513.9629
3.2026,-477.1544,-512.8945
3.2036,-474.2027,-511.9375
3.2135,-471.2183,-510.9194
3.2347,-468.3441,-509.9027
3.2353,-465.4182,-509.0595
3.2437,-462.5419,-508.1782
3.2640,-459.6086,-507.2549
3.2650,-456.5892,-506.4796
3.2736,-453.7103,-505.5680
3.2958,-450.8808,-504.7034
3.2964,-447.9519,-503.9273
3.3039,-445.1580,-502.9231
3.3267,-442.3041,-502.1023
3.3275,-439.3922,-501.2189
3.3336,-436.7284,-500.1319
3.3581,-433.9491,-499.2589
3.3589,-431.0712,-498.2902
3.3638,-428.3563,-497.3141
3.3879,-425.5065,-496.5240
3.3889,-422.7959,-495.5745
3.3936,-420.1213,-494.6815
3.4201,-417.2933,-493.8581
3.4208,-414.4847,-492.7763
3.4238,-411.7024,-491.8858
3.4336,-408.8713,-491.0045
3.4512,-406.1237,-490.0116
3.4536,-403.3538,-489.2921
3.4639,-400.5238,-488.3880
3.4827,-397.7728,-487.4064
3.4836,-394.9754,-486.6261
3.4936,-392.1638,-485.5144
3.5144,-389.3240,-484.4615
3.5151,-386.4450,-483.6574
3.5238,-383.6481,-482.5754
3.5453,-380.8912,-481.6459
3.5462,-378.0732,-480.5490
3.5536,-375.2344,-479.2962
3.5768,-372.2673,-478.3127
3.5775,-369.3209,-477.2394
3.5839,-366.2868,-476.0710
3.6081,-363.2424,-475.1658
3.6091,-360.3748,-474.1109
3.6136,-357.5376,-473.0658
3.6238,-354.6657,-472.2212
3.6335,-351.9300,-471.0034
3.6438,-349.0946,-469.9492
3.6536,-346.1868,-469.1732
3.6637,-343.4783,-467.9720
3.6736,-340.6967,-466.9662
3.6838,-337.7892,-466.1072
3.7019,-335.0240,-464.8360
3.7037,-332.1758,-463.9132
3.7136,-329.3063,-462.9204
3.7332,-326.6400,-461.6391
3.7339,-323.7760,-460.7056
3.7438,-320.9242,-459.6714
3.7679,-318.3272,-458.4473
3.7688,-315.5054,-457.5335
3.7736,-312.7584,-456.4339
3.7995,-310.1177,-455.2951
3.8002,-307.2071,-454.4530
3.8037,-304.3828,-453.2945
3.8136,-301.6060,-452.1376
3.8306,-298.6562,-451.1881
3.8335,-295.9293,-450.0104
3.8437,-293.2228,-448.9461
3.8609,-290.3360,-447.8908
3.8637,-287.5292,-446.7022
3.8735,-284.7960,-445.6859
3.8838,-281.9754,-444.6208
3.9042,-279.3088,-443.3569
3.9052,-276.5055,-442.2790
3.9134,-273.4820,-441.0213
3.9509,-267.7844,-438.6817
3.9516,-264.9156,-437.6688
3.9537,-262.2195,-436.5058
3.9635,-259.3412,-435.5749
3.9830,-256.4044,-434.4848
3.9837,-253.6891,-433.3362
3.9938,-250.8201,-432.3949
4.0141,-248.0280,-431.1994
4.0150,-245.3035,-430.0999
4.0236,-242.4765,-429.0160
4.0457,-239.5253,-427.7874
4.0464,-236.6609,-426.6805
4.0537,-233.8244,-425.3700
4.0636,-230.9104,-424.1409
4.0738,-227.9858,-422.9542
4.0836,-225.1343,-421.6725
4.0945,-222.2440,-420.5663
4.1035,-219.4769,-419.3762
4.1238,-216.6877,-418.1077
4.1244,-213.7675,-417.0296
4.1338,-210.9527,-415.8165
4.1552,-208.1791,-414.6128
4.1561,-205.2662,-413.7143
4.1636,-202.5797,-412.5041
4.1864,-199.8373,-411.2713
4.1871,-196.9109,-410.0967
4.1938,-194.0953,-408.7253
4.2175,-191.3117,-407.5381
4.2183,-188.3744,-406.3557
4.2234,-185.6085,-404.9118
4.2491,-182.7060,-403.7886
4.2498,-179.8542,-402.5163
4.2537,-177.1384,-401.0458
4.2635,-174.1802,-399.8128
4.2737,-171.1928,-398.5550
4.2835,-168.3222,-397.2278
4.3020,-165.2382,-396.0851
4.3034,-162.2620,-394.8186
4.3138,-159.4792,-393.4306
4.3332,-156.6072,-392.3263
4.3342,-153.8736,-391.0291
4.3436,-151.1638,-389.7062
4.3648,-148.3219,-388.6293
4.3655,-145.6642,-387.2957
4.3738,-142.8930,-386.0901
4.3958,-140.0803,-384.9682
4.3966,-137.4334,-383.5082
4.4035,-134.6677,-382.3062
4.4137,-131.9135,-381.0347
4.4236,-129.2344,-379.5373
4.4338,-126.4494,-378.4360
4.4581,-123.8130,-377.3987
4.4590,-121.2515,-376.1662
4.4635,-118.5840,-375.0716
4.4738,-115.8993,-373.8326
4.4834,-113.3003,-372.4879
4.4937,-110.5223,-371.4108
4.5036,-107.8287,-370.1147
4.5137,-105.1867,-368.8176
4.5236,-102.4907,-367.7320
4.5452,-99.8800,-366.4628
4.5460,-97.3166,-365.2486
4.5538,-94.6369,-363.9642
4.5764,-91.9470,-362.6743
4.5773,-89.2386,-361.3740
4.5835,-86.6080,-360.0387
4.6079,-83.9608,-358.6612
4.6086,-81.2577,-357.2460
4.6144,-78.4769,-355.8567
4.6390,-75.7219,-354.4884
4.6399,-73.0873,-353.2144
4.6435,-70.4998,-352.1532
4.6538,-68.0160,-350.9260
4.6702,-65.4291,-349.8087
4.6737,-62.7868,-348.6610
4.6835,-60.1514,-347.4540
4.7019,-57.4948,-346.1216
4.7035,-54.7654,-344.8506
4.7139,-52.0253,-343.6362
4.7328,-49.4402,-342.1593
4.7337,-46.7376,-340.9088
4.7435,-43.9414,-339.6497
4.7642,-41.3494,-338.1241
4.7649,-38.5843,-336.7889
4.7738,-35.7817,-335.4837
4.7951,-33.2256,-334.1239
4.7960,-30.5991,-332.9413
4.8034,-27.9928,-331.5865
4.8135,-25.3818,-330.2504
4.8335,-22.6007,-329.1561
4.8344,-19.9430,-327.8083
4.8434,-17.3458,-326.4591
4.8651,-14.6309,-325.1925
4.8657,-12.1201,-323.7017
4.8738,-9.5011,-322.4020
4.8967,-6.7373,-321.2325
4.8976,-4.0784,-319.6287
4.9036,-1.3826,-318.2364
4.9281,1.4000,-316.9213
4.9288,4.0491,-315.2443
4.9338,6.8367,-313.9687
4.9488,9.7883,-312.7678
4.9537,12.4468,-311.1679
4.9635,15.1924,-309.8904
4.9737,18.0171,-308.6269
4.9836,20.5897,-306.9467
4.9937,23.3302,-305.6298
5.0036,26.1937,-304.3832
5.0137,28.8488,-302.7630
5.0236,31.5933,-301.5611
5.0339,34.4394,-300.1949
5.0436,37.0476,-298.6101
5.0606,39.7450,-297.4410
5.0635,42.3400,-295.9315
5.0738,44.9433,-294.4043
5.0914,47.6043,-293.1627
5.0938,50.1527,-291.5211
5.1035,52.8062,-290.1387
5.1229,55.5625,-289.0010
5.1236,58.0365,-287.5698
5.1337,60.6578,-286.2293
5.1539,63.2750,-284.8082
5.1549,65.8598,-283.2937
5.1637,68.6627,-281.9158
5.1871,71.2086,-280.4144
5.1877,73.7339,-279.0361
5.1938,76.4836,-277.6767
5.2172,78.9613,-276.2395
5.2181,81.5358,-274.8998
5.2236,84.3090,-273.4421
5.2488,86.8798,-271.9031
5.2495,89.5974,-270.5506
5.2537,92.3470,-268.9026
5.2636,94.9805,-267.2639
5.2799,97.7782,-265.8358
5.2835,100.5149,-264.3220
5.2937,103.1498,-262.8649
5.3108,105.8473,-261.2984
5.3136,108.4748,-259.6226
5.3235,111.1978,-258.1342
5.3517,113.9192,-256.6020
5.3523,116.5354,-255.1690
5.3535,119.1289,-253.7435
5.3636,121.6776,-252.2476
5.3828,124.3126,-250.8630
5.3835,127.0837,-249.4898
5.3938,129.7151,-247.9848
5.4138,132.4109,-246.5531
5.4148,135.1113,-245.0721
5.4237,137.6787,-243.4860
5.4455,140.4266,-241.8764
5.4461,143.2172,-240.3547
5.4538,145.9084,-238.7441
5.4765,148.6903,-237.1805
5.4774,151.3714,-235.6812
5.4834,153.9439,-234.3048
5.5071,156.4457,-232.8765
5.5077,158.9277,-231.3950
5.5137,161.4932,-229.8910
5.5236,164.0919,-228.3704
5.5448,166.6719,-226.7896
5.5454,169.4274,-225.2951
5.5538,172.0847,-223.7663
5.5757,174.6864,-222.0619
5.5766,177.4056,-220.4101
5.5835,180.0554,-218.7211
5.6073,182.6360,-217.0882
5.6079,185.4287,-215.4527
5.6138,188.0816,-213.8661
5.6383,190.6930,-212.3011
5.6393,193.4048,-210.6899
5.6435,196.0399,-209.1257
5.6539,198.6603,-207.4752
5.6695,201.4278,-205.7833
5.6737,204.1252,-204.2571
5.6836,206.7838,-202.5581
5.7007,209.5030,-200.8660
5.7036,212.0755,-199.3201
5.7137,214.7561,-197.6671
5.7329,217.3772,-196.0772
5.7338,219.9751,-194.5398
5.7435,222.7132,-192.8799
5.7642,225.2964,-191.1552
5.7649,227.8448,-189.3737
5.7737,230.5479,-187.5982
5.7959,233.1642,-186.0380
5.7968,235.6848,-184.6910
5.8033,238.2458,-183.1943
5.8273,240.7061,-181.6531
5.8281,243.2753,-180.0739
5.8338,245.9444,-178.3198
5.8434,248.6050,-176.6005
5.8538,251.3278,-175.0272
5.8636,253.9580,-173.3968
5.8738,256.4672,-171.7642
5.8835,258.9840,-170.2807
5.9012,261.4727,-168.5095
5.9035,264.0816,-166.9069
5.9137,266.7080,-165.2969
5.9322,269.3449,-163.4978
5.9336,272.0465,-161.7427
5.9436,274.7577,-159.9790
5.9637,277.4263,-158.1577
5.9645,280.1764,-156.3739
5.9738,282.8079,-154.7340
5.9953,285.4224,-153.1260
5.9963,287.9640,-151.4553
6.0036,290.5225,-149.7121
6.0265,293.1919,-147.8870
6.0272,295.8742,-146.1567
6.0337,298.3443,-144.4381
6.0580,300.8837,-142.9434
6.0590,303.3684,-141.4245
6.0635,305.7835,-139.8949
6.0737,308.3902,-138.3611
6.0914,311.1120,-136.7181
6.0938,313.7379,-135.0364
6.1036,316.4139,-133.3349
6.1227,319.0452,-131.6504
6.1235,321.6004,-129.9229
6.1337,324.1906,-128.2290
6.1539,326.7060,-126.6141
6.1548,329.2910,-125.0350
6.1645,331.8285,-123.4156
6.1859,334.3398,-121.7761
6.1866,336.9678,-120.2184
6.1938,339.4500,-118.4843
6.2170,341.8100,-116.7564
6.2180,344.3562,-115.0941
6.2235,346.8882,-113.3217
6.2484,349.4964,-111.5736
6.2491,352.2495,-109.8991
6.2538,354.7441,-108.1102
6.2639,357.3147,-106.3551
6.2738,360.0252,-104.6617
6.2836,362.5331,-102.8169
6.2938,365.0891,-101.0739
6.3107,367.8393,-99.3819
6.3137,370.3709,-97.6284
6.3236,372.9920,-95.9177
6.3424,375.6360,-94.2517
6.3433,378.0407,-92.4381
6.3537,380.5077,-90.6490
6.3737,383.1496,-88.9327
6.3747,385.6793,-87.0266
6.3836,388.3672,-85.2413
6.4181,393.3833,-81.7743
6.4189,396.0327,-80.1209
6.4238,398.4056,-78.3596
6.4336,401.0017,-76.5830
6.4437,403.6131,-74.9801
6.4535,405.9879,-73.2258
6.4639,408.2580,-71.6075
6.4736,410.7687,-69.9138
6.4837,413.1664,-68.1437
6.4935,415.7327,-66.4114
6.5125,418.2251,-64.7399
6.5133,420.6259,-62.9760
6.5237,423.1284,-61.2652
6.5434,425.6283,-59.5768
6.5444,428.1140,-57.7836
6.5536,430.6303,-56.0329
6.5745,433.0891,-54.3092
6.5753,435.4999,-52.3982
6.5838,437.8596,-50.5872
6.6067,440.3249,-48.8774
6.6076,442.7263,-47.0372
6.6136,445.1605,-45.3283
6.6235,447.7012,-43.6730
6.6335,450.1135,-41.7405
6.6438,452.5240,-39.8737
6.6536,455.1427,-38.0326
6.6639,457.5986,-36.1574
6.6735,460.0228,-34.4816
6.6837,462.4742,-32.7052
6.6935,464.7722,-30.8049
6.7037,467.2607,-29.0314
6.7135,469.7633,-27.1910
6.7238,472.0694,-25.3466
6.7335,474.5319,-23.8074
6.7438,476.9134,-21.9757
6.7536,479.0352,-20.1515
6.7790,481.5064,-18.5483
6.7797,483.8011,-16.7408
6.7837,486.1155,-15.0812
6.7935,488.6693,-13.3980
6.8102,491.0045,-11.5074
6.8135,493.3802,-9.8225
6.8237,495.9492,-8.0850
6.8413,498.2815,-6.2664
6.8436,500.6442,-4.5839
6.8535,503.1904,-2.8511
6.8729,505.4224,-0.9772
6.8736,507.7809,0.8424
6.8838,510.3089,2.4913
6.9032,512.4957,4.4199
6.9042,514.7903,6.3128
6.9137,517.2674,8.1557
6.9354,519.5659,10.0599
6.9361,521.9948,11.8245
6.9438,524.4345,13.6041
6.9667,526.7101,15.4294
6.9676,529.1466,17.2484
6.9735,531.5469,19.0979
6.9984,533.8782,21.0220
6.9991,536.2937,22.8582
7.0038,538.6970,24.6134
7.0137,541.0036,26.4724
7.0236,543.4417,28.2540
7.0335,545.8564,30.1490
7.0437,548.2183,32.1640
7.0536,550.6574,34.0479
7.0768,553.0665,35.9265
7.0775,555.4584,37.9263
7.0837,557.9166,39.7903
7.1082,560.2564,41.6908
7.1091,562.5742,43.6052
7.1136,565.0239,45.3988
7.1237,567.3345,47.3037
7.1400,569.6585,49.2557
7.1437,572.0659,51.0371
7.1535,574.4051,52.9530
7.1710,576.7397,54.9025
7.1735,579.1044,56.7514
7.1838,581.4480,58.7050
7.2027,583.7446,60.6796
7.2035,586.0307,62.4546
7.2135,588.4196,64.3399
7.2341,590.7155,66.2827
7.2348,593.1424,68.1291
7.2437,595.6043,70.1339
7.2651,597.9474,72.2444
7.2660,600.3663,74.2243
7.2735,602.7568,76.2449
7.2968,605.0532,78.2139
7.2975,607.4359,79.9870
7.3037,609.8546,81.9773
7.3277,612.1448,83.9969
7.3287,614.5787,85.8403
7.3335,616.9355,87.8445
7.3593,619.1614,89.9236
7.3600,621.6041,91.8579
7.3637,623.9463,93.9000
7.3735,626.2309,95.8619
7.3904,628.6609,97.7917
7.3935,630.9816,99.8386
7.4037,633.4091,101.9756
7.4216,635.9093,104.0458
7.4236,638.1764,106.1921
7.4336,640.5838,108.0492
7.4530,642.8481,109.9107
7.4537,645.0073,111.9148
7.4637,647.3195,113.7212
7.4827,649.6167,115.6379
7.4837,651.8717,117.5222
7.4935,654.2738,119.4002
7.5150,656.6306,121.3232
7.5158,658.9159,123.3479
7.5237,661.3477,125.3949
7.5335,663.6610,127.4462
7.5440,665.9493,129.4836
7.5609,668.3869,131.4246
7.5637,670.6591,133.4958
